0	-51.6
0.001	-51
0.002	-50.9
0.003	-51.4
0.004	-52.4
0.005	-53.9
0.006	-55.6
0.007	-57.6
0.008	-59.5
0.009	-61.3
0.01	-62.8
0.011	-64
0.012	-64.6
0.013	-64.7
0.014	-64.3
0.015	-63.5
0.016	-62.4
0.017	-61.1
0.018	-59.8
0.019	-58.5
0.02	-57.4
0.021	-56.7
0.022	-56.4
0.023	-56.4
0.024	-56.8
0.025	-57.5
0.026	-58.4
0.027	-59.4
0.028	-60.2
0.029	-60.9
0.03	-61.1
0.031	-61
0.032	-60.3
0.033	-59.1
0.034	-57.5
0.035	-55.5
0.036	-53.2
0.037	-50.9
0.038	-48.7
0.039	-46.7
0.04	-45.1
0.041	-44.1
0.042	-43.7
0.043	-44
0.044	-44.9
0.045	-46.5
0.046	-48.5
0.047	-50.9
0.048	-53.5
0.049	-56
0.05	-58.4
0.051	-60.5
0.052	-62.1
0.053	-63.2
0.054	-63.7
0.055	-63.7
0.056	-63.2
0.057	-62.3
0.058	-61.2
0.059	-59.8
0.06	-58.5
0.061	-57.3
0.062	-56.3
0.063	-55.5
0.064	-55.1
0.065	-55
0.066	-55.1
0.067	-55.4
0.068	-55.9
0.069	-56.4
0.07	-56.9
0.071	-57.2
0.072	-57.3
0.073	-57.2
0.074	-56.8
0.075	-56.3
0.076	-55.5
0.077	-54.7
0.078	-54
0.079	-53.3
0.08	-52.8
0.081	-52.6
0.082	-52.7
0.083	-53.1
0.084	-53.9
0.085	-55
0.086	-56.3
0.087	-57.8
0.088	-59.4
0.089	-60.9
0.09	-62.2
0.091	-63.3
0.092	-64.2
0.093	-64.6
0.094	-64.8
0.095	-64.6
0.096	-64.1
0.097	-63.4
0.098	-62.5
0.099	-61.6
0.1	-60.6
0.101	-59.8
0.102	-59.1
0.103	-58.5
0.104	-58.2
0.105	-58
0.106	-58
0.107	-58.1
0.108	-58.3
0.109	-58.4
0.11	-58.5
0.111	-58.5
0.112	-58.4
0.113	-58.2
0.114	-57.8
0.115	-57.3
0.116	-56.8
0.117	-56.2
0.118	-55.6
0.119	-55.1
0.12	-54.7
0.121	-54.4
0.122	-54.2
0.123	-54.2
0.124	-54.3
0.125	-54.5
0.126	-54.8
0.127	-55.1
0.128	-55.3
0.129	-55.6
0.13	-55.8
0.131	-55.9
0.132	-56
0.133	-56
0.134	-56.1
0.135	-56.1
0.136	-56.3
0.137	-56.5
0.138	-56.9
0.139	-57.4
0.14	-58
0.141	-58.7
0.142	-59.5
0.143	-60.2
0.144	-60.8
0.145	-61.2
0.146	-61.4
0.147	-61.2
0.148	-60.6
0.149	-59.6
0.15	-58.2
0.151	-56.5
0.152	-54.5
0.153	-52.4
0.154	-50.3
0.155	-48.2
0.156	-46.4
0.157	-44.9
0.158	-43.9
0.159	-43.4
0.16	-43.4
0.161	-44
0.162	-45.1
0.163	-46.4
0.164	-48.1
0.165	-49.7
0.166	-51.3
0.167	-52.7
0.168	-53.6
0.169	-54
0.17	-53.9
0.171	-53.1
0.172	-51.7
0.173	-49.8
0.174	-47.4
0.175	-44.7
0.176	-41.9
0.177	-39.2
0.178	-36.6
0.179	-34.3
0.18	-32.5
0.181	-31.3
0.182	-30.6
0.183	-30.5
0.184	-31
0.185	-31.9
0.186	-33.1
0.187	-34.5
0.188	-36
0.189	-37.4
0.19	-38.6
0.191	-39.6
0.192	-40.3
0.193	-40.5
0.194	-40.3
0.195	-39.8
0.196	-38.9
0.197	-37.7
0.198	-36.2
0.199	-34.5
0.2	-32.5
0.201	-30.4
0.202	-28
0.203	-25.4
0.204	-22.6
0.205	-19.5
0.206	-16.1
0.207	-12.4
0.208	-8.3
0.209	-3.9
0.21	0.7
0.211	5.5
0.212	10.3
0.213	15.2
0.214	19.8
0.215	24.1
0.216	27.9
0.217	31.2
0.218	33.8
0.219	35.7
0.22	36.9
0.221	37.4
0.222	37.4
0.223	36.9
0.224	36.1
0.225	35.1
0.226	34.1
0.227	33.3
0.228	32.8
0.229	32.5
0.23	32.7
0.231	33.3
0.232	34.2
0.233	35.4
0.234	36.6
0.235	37.7
0.236	38.7
0.237	39.3
0.238	39.3
0.239	38.7
0.24	37.5
0.241	35.5
0.242	32.9
0.243	29.7
0.244	26
0.245	21.9
0.246	17.6
0.247	13.2
0.248	8.8
0.249	4.6
0.25	0.5
0.251	-3.3
0.252	-6.9
0.253	-10.4
0.254	-13.6
0.255	-16.9
0.256	-20.1
0.257	-23.4
0.258	-26.8
0.259	-30.2
0.26	-33.8
0.261	-37.3
0.262	-40.7
0.263	-44
0.264	-46.9
0.265	-49.3
0.266	-51.2
0.267	-52.5
0.268	-53.1
0.269	-53.1
0.27	-52.6
0.271	-51.6
0.272	-50.4
0.273	-49.2
0.274	-48.2
0.275	-47.5
0.276	-47.4
0.277	-48
0.278	-49.4
0.279	-51.6
0.28	-54.6
0.281	-58.2
0.282	-62.2
0.283	-66.5
0.284	-70.7
0.285	-74.6
0.286	-77.9
0.287	-80.5
0.288	-82.1
0.289	-82.7
0.29	-82.3
0.291	-81.1
0.292	-79.1
0.293	-76.5
0.294	-73.7
0.295	-70.9
0.296	-68.3
0.297	-66.2
0.298	-64.8
0.299	-64.2
0.3	-64.3
0.301	-65.2
0.302	-66.7
0.303	-68.6
0.304	-70.6
0.305	-72.7
0.306	-74.4
0.307	-75.7
0.308	-76.3
0.309	-76.3
0.31	-75.5
0.311	-74
0.312	-72.1
0.313	-69.9
0.314	-67.6
0.315	-65.4
0.316	-63.5
0.317	-62.1
0.318	-61.4
0.319	-61.3
0.32	-61.8
0.321	-62.7
0.322	-63.9
0.323	-65.2
0.324	-66.5
0.325	-67.4
0.326	-67.9
0.327	-68
0.328	-67.7
0.329	-67.2
0.33	-66.9
0.331	-67.2
0.332	-68.4
0.333	-70.9
0.334	-75.3
0.335	-82
0.336	-91.3
0.337	-103.1
0.338	-116.6
0.339	-132.2
0.34	-149.1
0.341	-166.4
0.342	-182.9
0.343	-196.6
0.344	-206.7
0.345	-212.1
0.346	-211.5
0.347	-203.6
0.348	-186.7
0.349	-161
0.35	-126.2
0.351	-82.8
0.352	-30.9
0.353	28.9
0.354	94.8
0.355	165.1
0.356	238.4
0.357	312.6
0.358	386.3
0.359	456.8
0.36	523.1
0.361	583.7
0.362	637.6
0.363	683.6
0.364	720.7
0.365	749.4
0.366	770.1
0.367	782.7
0.368	787.2
0.369	783.9
0.37	774.4
0.371	759.4
0.372	739.4
0.373	714.4
0.374	684.8
0.375	651.7
0.376	615.6
0.377	576.8
0.378	535.1
0.379	491.1
0.38	445.3
0.381	398.5
0.382	351.1
0.383	303.4
0.384	256.7
0.385	211.6
0.386	168.9
0.387	129.3
0.388	93.3
0.389	62.4
0.39	36.5
0.391	15.6
0.392	-0.2
0.393	-11.2
0.394	-16.8
0.395	-18.5
0.396	-17
0.397	-13.3
0.398	-8.1
0.399	-1.7
0.4	4.4
0.401	9.6
0.402	13.2
0.403	14.8
0.404	14.7
0.405	12.6
0.406	8.6
0.407	3
0.408	-3.8
0.409	-11.1
0.41	-18.5
0.411	-25.6
0.412	-32.1
0.413	-37.6
0.414	-41.8
0.415	-44.8
0.416	-46.6
0.417	-47.4
0.418	-47.4
0.419	-46.9
0.42	-46.3
0.421	-45.7
0.422	-45.5
0.423	-45.8
0.424	-46.6
0.425	-48.1
0.426	-50
0.427	-52.4
0.428	-54.8
0.429	-57.1
0.43	-59.1
0.431	-60.5
0.432	-61.3
0.433	-61.3
0.434	-60.5
0.435	-58.9
0.436	-56.7
0.437	-54.1
0.438	-51.3
0.439	-48.5
0.44	-46
0.441	-44.1
0.442	-42.7
0.443	-42.1
0.444	-42.3
0.445	-43.3
0.446	-44.9
0.447	-46.9
0.448	-49.2
0.449	-51.5
0.45	-53.6
0.451	-55.4
0.452	-56.6
0.453	-57.2
0.454	-57
0.455	-56.2
0.456	-54.7
0.457	-52.6
0.458	-50.2
0.459	-47.6
0.46	-44.9
0.461	-42.3
0.462	-39.9
0.463	-37.9
0.464	-36.2
0.465	-35
0.466	-34.1
0.467	-33.5
0.468	-33.1
0.469	-32.8
0.47	-32.5
0.471	-32.1
0.472	-31.5
0.473	-30.8
0.474	-29.8
0.475	-28.6
0.476	-27.2
0.477	-25.7
0.478	-24.1
0.479	-22.5
0.48	-21
0.481	-19.6
0.482	-18.4
0.483	-17.2
0.484	-16.3
0.485	-15.5
0.486	-14.7
0.487	-14
0.488	-13.2
0.489	-12.4
0.49	-11.5
0.491	-10.6
0.492	-9.6
0.493	-8.4
0.494	-7.4
0.495	-6.3
0.496	-5.4
0.497	-4.6
0.498	-4
0.499	-3.6
0.5	-3.4
0.501	-3.3
0.502	-3.3
0.503	-3.3
0.504	-3.2
0.505	-3
0.506	-2.6
0.507	-1.8
0.508	-0.6
0.509	1
0.51	3
0.511	5.2
0.512	7.7
0.513	10.4
0.514	13
0.515	15.5
0.516	17.7
0.517	19.6
0.518	21.1
0.519	22.1
0.52	22.6
0.521	22.7
0.522	22.4
0.523	21.9
0.524	21.4
0.525	20.9
0.526	20.6
0.527	20.6
0.528	21.1
0.529	22
0.53	23.4
0.531	25.3
0.532	27.6
0.533	30.3
0.534	33.1
0.535	35.9
0.536	38.6
0.537	41
0.538	43.2
0.539	45
0.54	46.4
0.541	47.5
0.542	48.4
0.543	49.1
0.544	49.8
0.545	50.6
0.546	51.6
0.547	53.1
0.548	55.1
0.549	57.5
0.55	60.5
0.551	63.9
0.552	67.6
0.553	71.7
0.554	75.7
0.555	79.7
0.556	83.3
0.557	86.5
0.558	89.3
0.559	91.4
0.56	92.9
0.561	93.8
0.562	94.4
0.563	94.7
0.564	94.9
0.565	95.2
0.566	95.8
0.567	96.9
0.568	98.7
0.569	101.2
0.57	104.4
0.571	108.4
0.572	113.1
0.573	118.3
0.574	123.9
0.575	129.5
0.576	135
0.577	140.2
0.578	145
0.579	149
0.58	152.3
0.581	154.8
0.582	156.6
0.583	157.9
0.584	158.6
0.585	159.1
0.586	159.5
0.587	160.1
0.588	161.1
0.589	162.6
0.59	164.7
0.591	167.5
0.592	171
0.593	175.2
0.594	179.8
0.595	184.7
0.596	189.7
0.597	194.6
0.598	199.3
0.599	203.4
0.6	206.9
0.601	209.7
0.602	211.8
0.603	213.3
0.604	214.1
0.605	214.5
0.606	214.5
0.607	214.5
0.608	214.6
0.609	214.9
0.61	215.6
0.611	216.8
0.612	218.5
0.613	220.7
0.614	223.2
0.615	226
0.616	229
0.617	231.8
0.618	234.3
0.619	236.3
0.62	237.5
0.621	237.9
0.622	237.4
0.623	235.8
0.624	233.2
0.625	229.6
0.626	225.3
0.627	220.2
0.628	214.5
0.629	208.5
0.63	202.4
0.631	196.2
0.632	190.1
0.633	184.1
0.634	178.3
0.635	172.8
0.636	167.6
0.637	162.5
0.638	157.4
0.639	152.4
0.64	147.3
0.641	142.1
0.642	136.7
0.643	130.9
0.644	125
0.645	118.8
0.646	112.4
0.647	105.9
0.648	99.1
0.649	92.5
0.65	85.9
0.651	79.4
0.652	73.1
0.653	66.8
0.654	60.8
0.655	55
0.656	49.4
0.657	43.8
0.658	38.1
0.659	32.6
0.66	27.2
0.661	21.6
0.662	16
0.663	10.2
0.664	4.5
0.665	-1.1
0.666	-6.7
0.667	-12.2
0.668	-17.6
0.669	-22.6
0.67	-27.3
0.671	-31.8
0.672	-35.9
0.673	-39.8
0.674	-43.2
0.675	-46.3
0.676	-49.2
0.677	-51.9
0.678	-54.4
0.679	-56.7
0.68	-58.8
0.681	-60.9
0.682	-62.8
0.683	-64.5
0.684	-66.1
0.685	-67.4
0.686	-68.4
0.687	-69.2
0.688	-69.8
0.689	-70
0.69	-70
0.691	-69.8
0.692	-69.4
0.693	-69
0.694	-68.5
0.695	-68.1
0.696	-67.8
0.697	-67.8
0.698	-68
0.699	-68.5
0.7	-69.2
0.701	-70.2
0.702	-71.4
0.703	-72.8
0.704	-74.1
0.705	-75.4
0.706	-76.5
0.707	-77.4
0.708	-78
0.709	-78.3
0.71	-78.2
0.711	-77.9
0.712	-77.2
0.713	-76.5
0.714	-75.7
0.715	-74.9
0.716	-74.3
0.717	-74
0.718	-74.1
0.719	-74.5
0.72	-75.3
0.721	-76.5
0.722	-78.1
0.723	-79.9
0.724	-81.8
0.725	-83.7
0.726	-85.5
0.727	-87
0.728	-88.2
0.729	-88.8
0.73	-89.1
0.731	-88.8
0.732	-88.1
0.733	-86.9
0.734	-85.5
0.735	-83.9
0.736	-82.3
0.737	-80.8
0.738	-79.4
0.739	-78.3
0.74	-77.6
0.741	-77.2
0.742	-77.2
0.743	-77.6
0.744	-78.2
0.745	-78.9
0.746	-79.8
0.747	-80.7
0.748	-81.4
0.749	-82
0.75	-82.4
0.751	-82.5
0.752	-82.4
0.753	-82
0.754	-81.6
0.755	-81
0.756	-80.3
0.757	-79.7
0.758	-79.1
0.759	-78.7
0.76	-78.4
0.761	-78.2
0.762	-78
0.763	-77.9
0.764	-77.8
0.765	-77.6
0.766	-77.3
0.767	-76.8
0.768	-76.2
0.769	-75.4
0.77	-74.5
0.771	-73.6
0.772	-72.8
0.773	-72
0.774	-71.6
0.775	-71.5
0.776	-71.9
0.777	-72.7
0.778	-73.9
0.779	-75.6
0.78	-77.6
0.781	-79.9
0.782	-82.1
0.783	-84.3
0.784	-86.1
0.785	-87.5
0.786	-88.2
0.787	-88.1
0.788	-87.2
0.789	-85.4
0.79	-82.9
0.791	-79.8
0.792	-76.1
0.793	-72.2
0.794	-68.3
0.795	-64.6
0.796	-61.3
0.797	-58.7
0.798	-56.9
0.799	-55.9
0.8	-55.9
0.801	-56.8
0.802	-58.4
0.803	-60.5
0.804	-63
0.805	-65.7
0.806	-68.2
0.807	-70.3
0.808	-71.9
0.809	-72.9
0.81	-73.1
0.811	-72.6
0.812	-71.4
0.813	-69.6
0.814	-67.5
0.815	-65.2
0.816	-63
0.817	-61.1
0.818	-59.7
0.819	-58.8
0.82	-58.7
0.821	-59.3
0.822	-60.5
0.823	-62.3
0.824	-64.5
0.825	-66.9
0.826	-69.2
0.827	-71.3
0.828	-72.9
0.829	-74
0.83	-74.3
0.831	-73.9
0.832	-72.7
0.833	-70.9
0.834	-68.6
0.835	-66
0.836	-63.3
0.837	-60.7
0.838	-58.4
0.839	-56.7
0.84	-55.5
0.841	-55.1
0.842	-55.3
0.843	-56.3
0.844	-57.7
0.845	-59.6
0.846	-61.7
0.847	-63.8
0.848	-65.6
0.849	-67.1
0.85	-68.1
0.851	-68.4
0.852	-68
0.853	-67
0.854	-65.3
0.855	-63.2
0.856	-60.8
0.857	-58.2
0.858	-55.6
0.859	-53.3
0.86	-51.3
0.861	-49.8
0.862	-48.9
0.863	-48.7
0.864	-49
0.865	-49.9
0.866	-51.3
0.867	-53
0.868	-54.9
0.869	-56.9
0.87	-58.8
0.871	-60.6
0.872	-62.2
0.873	-63.5
0.874	-64.5
0.875	-65.1
0.876	-65.5
0.877	-65.6
0.878	-65.5
0.879	-65.3
0.88	-64.9
0.881	-64.4
0.882	-63.9
0.883	-63.3
0.884	-62.6
0.885	-61.9
0.886	-61.1
0.887	-60.1
0.888	-59.1
0.889	-58.1
0.89	-57
0.891	-55.9
0.892	-54.9
0.893	-54
0.894	-53.4
0.895	-53.1
0.896	-53.1
0.897	-53.6
0.898	-54.4
0.899	-55.7
0.9	-57.3
0.901	-59.1
0.902	-61.1
0.903	-63.1
0.904	-65
0.905	-66.6
0.906	-67.7
0.907	-68.4
0.908	-68.4
0.909	-67.8
0.91	-66.6
0.911	-64.8
0.912	-62.6
0.913	-60
0.914	-57.3
0.915	-54.6
0.916	-52.1
0.917	-50
0.918	-48.4
0.919	-47.4
0.92	-47
0.921	-47.3
0.922	-48.2
0.923	-49.7
0.924	-51.5
0.925	-53.5
0.926	-55.6
0.927	-57.6
0.928	-59.4
0.929	-60.8
0.93	-61.8
0.931	-62.3
0.932	-62.3
0.933	-62
0.934	-61.3
0.935	-60.4
0.936	-59.5
0.937	-58.5
0.938	-57.8
0.939	-57.3
0.94	-57.2
0.941	-57.4
0.942	-57.9
0.943	-58.7
0.944	-59.8
0.945	-60.9
0.946	-62
0.947	-62.9
0.948	-63.6
0.949	-63.9
0.95	-63.7
0.951	-63.1
0.952	-62
0.953	-60.5
0.954	-58.8
0.955	-56.8
0.956	-54.7
0.957	-52.8
0.958	-51.1
0.959	-49.7
0.96	-48.8
0.961	-48.4
0.962	-48.6
0.963	-49.2
0.964	-50.4
0.965	-52
0.966	-53.8
0.967	-55.8
0.968	-57.9
0.969	-59.8
0.97	-61.4
0.971	-62.7
0.972	-63.6
0.973	-64
0.974	-64
0.975	-63.4
0.976	-62.5
0.977	-61.2
0.978	-59.6
0.979	-57.9
0.98	-56.1
0.981	-54.3
0.982	-52.7
0.983	-51.1
0.984	-49.8
0.985	-48.7
0.986	-47.9
0.987	-47.4
0.988	-47.1
0.989	-46.9
0.99	-46.9
0.991	-47.1
0.992	-47.3
0.993	-47.5
0.994	-47.7
0.995	-47.8
0.996	-47.8
0.997	-47.7
0.998	-47.5
0.999	-47.1
1	-46.5
1.001	-45.8
1.002	-45
1.003	-44.2
1.004	-43.3
1.005	-42.4
1.006	-41.6
1.007	-41
1.008	-40.5
1.009	-40.3
1.01	-40.5
1.011	-40.9
1.012	-41.7
1.013	-42.8
1.014	-44.2
1.015	-45.8
1.016	-47.6
1.017	-49.4
1.018	-51.1
1.019	-52.7
1.02	-54
1.021	-54.8
1.022	-55.2
1.023	-55
1.024	-54.2
1.025	-52.8
1.026	-51
1.027	-48.7
1.028	-46.2
1.029	-43.6
1.03	-41
1.031	-38.7
1.032	-36.8
1.033	-35.4
1.034	-34.6
1.035	-34.5
1.036	-35.1
1.037	-36.3
1.038	-38.1
1.039	-40.2
1.04	-42.5
1.041	-44.8
1.042	-47
1.043	-48.6
1.044	-49.7
1.045	-50.2
1.046	-49.8
1.047	-48.6
1.048	-46.6
1.049	-43.9
1.05	-40.7
1.051	-37.1
1.052	-33.4
1.053	-29.6
1.054	-26.1
1.055	-22.9
1.056	-20.1
1.057	-17.9
1.058	-16.2
1.059	-14.9
1.06	-13.9
1.061	-13.1
1.062	-12.3
1.063	-11.1
1.064	-9.7
1.065	-7.6
1.066	-4.9
1.067	-1.5
1.068	2.7
1.069	7.5
1.07	12.9
1.071	18.6
1.072	24.4
1.073	30
1.074	35.3
1.075	39.8
1.076	43.6
1.077	46.4
1.078	48.2
1.079	48.8
1.08	48.4
1.081	47.1
1.082	45
1.083	42.5
1.084	39.7
1.085	36.8
1.086	34.2
1.087	32
1.088	30.3
1.089	29.3
1.09	29
1.091	29.4
1.092	30.3
1.093	31.7
1.094	33.4
1.095	35.3
1.096	37.1
1.097	38.7
1.098	39.9
1.099	40.5
1.1	40.5
1.101	39.9
1.102	38.6
1.103	36.5
1.104	33.8
1.105	30.5
1.106	26.7
1.107	22.4
1.108	17.6
1.109	12.5
1.11	7
1.111	1.1
1.112	-5
1.113	-11.5
1.114	-18.1
1.115	-24.9
1.116	-31.7
1.117	-38.5
1.118	-45
1.119	-51.2
1.12	-56.8
1.121	-61.6
1.122	-65.6
1.123	-68.6
1.124	-70.4
1.125	-71
1.126	-70.5
1.127	-69
1.128	-66.5
1.129	-63.3
1.13	-59.6
1.131	-55.8
1.132	-52.1
1.133	-48.8
1.134	-46.1
1.135	-44.3
1.136	-43.4
1.137	-43.7
1.138	-44.9
1.139	-47.1
1.14	-50
1.141	-53.4
1.142	-57.1
1.143	-60.9
1.144	-64.4
1.145	-67.4
1.146	-69.8
1.147	-71.4
1.148	-72.2
1.149	-72.3
1.15	-71.8
1.151	-70.9
1.152	-69.6
1.153	-68.3
1.154	-67.2
1.155	-66.3
1.156	-65.9
1.157	-66.1
1.158	-66.7
1.159	-67.8
1.16	-69.3
1.161	-70.9
1.162	-72.5
1.163	-73.8
1.164	-74.7
1.165	-75.1
1.166	-74.8
1.167	-74
1.168	-72.5
1.169	-70.6
1.17	-68.3
1.171	-66
1.172	-63.9
1.173	-62.2
1.174	-61.1
1.175	-60.7
1.176	-61
1.177	-62
1.178	-63.7
1.179	-65.9
1.18	-68.3
1.181	-70.6
1.182	-72.6
1.183	-74.2
1.184	-75.2
1.185	-75.5
1.186	-75.2
1.187	-74.5
1.188	-73.7
1.189	-73.2
1.19	-73.8
1.191	-75.7
1.192	-79.6
1.193	-85.3
1.194	-93.6
1.195	-104.7
1.196	-118.3
1.197	-133.9
1.198	-150.1
1.199	-166.7
1.2	-182.5
1.201	-196.4
1.202	-206.7
1.203	-211
1.204	-209
1.205	-199.3
1.206	-181.2
1.207	-153.8
1.208	-116.1
1.209	-69.1
1.21	-13.4
1.211	50
1.212	120
1.213	195.2
1.214	273.1
1.215	351.8
1.216	429.6
1.217	504.4
1.218	574.3
1.219	637.1
1.22	692.2
1.221	738.9
1.222	776.3
1.223	803.6
1.224	820.7
1.225	828.6
1.226	828.2
1.227	819.8
1.228	803.6
1.229	780.5
1.23	751.9
1.231	718.9
1.232	682
1.233	641.3
1.234	597.4
1.235	551.5
1.236	504
1.237	455.4
1.238	405.8
1.239	355.9
1.24	306.6
1.241	258.2
1.242	211.6
1.243	167.2
1.244	126.3
1.245	89.2
1.246	56.3
1.247	28.2
1.248	5
1.249	-12.3
1.25	-24.4
1.251	-31.9
1.252	-35
1.253	-34.5
1.254	-30.5
1.255	-24.3
1.256	-17.2
1.257	-9.9
1.258	-3.3
1.259	2.6
1.26	6.8
1.261	8.8
1.262	8.4
1.263	5.8
1.264	1.6
1.265	-4.2
1.266	-11.1
1.267	-18.6
1.268	-26.2
1.269	-33.1
1.27	-39.1
1.271	-43.9
1.272	-47.3
1.273	-49.2
1.274	-49.8
1.275	-49.2
1.276	-47.8
1.277	-45.9
1.278	-43.9
1.279	-42.1
1.28	-40.7
1.281	-40.2
1.282	-40.4
1.283	-41.6
1.284	-43.6
1.285	-46.2
1.286	-49.3
1.287	-52.6
1.288	-55.8
1.289	-58.5
1.29	-60.8
1.291	-62.3
1.292	-63
1.293	-63
1.294	-62.2
1.295	-60.8
1.296	-59.1
1.297	-57.2
1.298	-55.3
1.299	-53.6
1.3	-52.3
1.301	-51.5
1.302	-51.1
1.303	-51.2
1.304	-51.6
1.305	-52.2
1.306	-52.9
1.307	-53.4
1.308	-53.6
1.309	-53.4
1.31	-52.6
1.311	-51.3
1.312	-49.6
1.313	-47.3
1.314	-44.9
1.315	-42.4
1.316	-40
1.317	-38
1.318	-36.4
1.319	-35.5
1.32	-35.3
1.321	-35.8
1.322	-37
1.323	-38.6
1.324	-40.5
1.325	-42.4
1.326	-44.2
1.327	-45.6
1.328	-46.3
1.329	-46.2
1.33	-45.2
1.331	-43.2
1.332	-40.4
1.333	-36.7
1.334	-32.6
1.335	-28.1
1.336	-23.6
1.337	-19.3
1.338	-15.4
1.339	-12.3
1.34	-10
1.341	-8.7
1.342	-8.3
1.343	-8.8
1.344	-10.1
1.345	-12
1.346	-14.3
1.347	-16.6
1.348	-18.9
1.349	-20.8
1.35	-22.3
1.351	-23.3
1.352	-23.5
1.353	-23.1
1.354	-22.2
1.355	-20.7
1.356	-18.9
1.357	-16.9
1.358	-14.9
1.359	-12.8
1.36	-11
1.361	-9.3
1.362	-7.9
1.363	-6.6
1.364	-5.4
1.365	-4.2
1.366	-3
1.367	-1.6
1.368	0.1
1.369	2.2
1.37	4.6
1.371	7.3
1.372	10.3
1.373	13.4
1.374	16.6
1.375	19.7
1.376	22.5
1.377	25
1.378	27
1.379	28.4
1.38	29.2
1.381	29.5
1.382	29.5
1.383	29.1
1.384	28.6
1.385	28.1
1.386	27.8
1.387	28
1.388	28.7
1.389	29.9
1.39	31.9
1.391	34.4
1.392	37.5
1.393	41
1.394	44.8
1.395	48.6
1.396	52.2
1.397	55.6
1.398	58.5
1.399	60.9
1.4	62.6
1.401	63.7
1.402	64.3
1.403	64.5
1.404	64.5
1.405	64.4
1.406	64.5
1.407	64.9
1.408	65.8
1.409	67.4
1.41	69.7
1.411	72.6
1.412	76.2
1.413	80.4
1.414	84.9
1.415	89.5
1.416	94.2
1.417	98.6
1.418	102.7
1.419	106.2
1.42	109.1
1.421	111.3
1.422	112.8
1.423	113.8
1.424	114.4
1.425	114.6
1.426	114.7
1.427	114.9
1.428	115.4
1.429	116.1
1.43	117.4
1.431	119.1
1.432	121.4
1.433	124.3
1.434	127.5
1.435	131
1.436	134.7
1.437	138.5
1.438	142.3
1.439	145.9
1.44	149.4
1.441	152.6
1.442	155.7
1.443	158.7
1.444	161.7
1.445	164.7
1.446	167.8
1.447	171.2
1.448	175
1.449	179.1
1.45	183.5
1.451	188.1
1.452	193
1.453	198.1
1.454	202.9
1.455	207.6
1.456	211.9
1.457	215.6
1.458	218.8
1.459	221.2
1.46	222.9
1.461	224
1.462	224.5
1.463	224.5
1.464	224.2
1.465	223.9
1.466	223.6
1.467	223.6
1.468	224
1.469	224.9
1.47	226.2
1.471	228.2
1.472	230.5
1.473	233.1
1.474	235.8
1.475	238.3
1.476	240.6
1.477	242.3
1.478	243.2
1.479	243.2
1.48	242.1
1.481	240
1.482	236.8
1.483	232.5
1.484	227.4
1.485	221.6
1.486	215.2
1.487	208.6
1.488	201.8
1.489	195.2
1.49	188.8
1.491	182.8
1.492	177.2
1.493	172
1.494	167.2
1.495	162.8
1.496	158.6
1.497	154.5
1.498	150.2
1.499	145.7
1.5	140.9
1.501	135.7
1.502	130
1.503	123.6
1.504	116.8
1.505	109.6
1.506	101.9
1.507	94
1.508	85.6
1.509	77.3
1.51	69
1.511	60.8
1.512	52.8
1.513	44.9
1.514	37.4
1.515	30.2
1.516	23.4
1.517	16.8
1.518	10.5
1.519	4.6
1.52	-0.9
1.521	-6.1
1.522	-11
1.523	-15.6
1.524	-19.8
1.525	-23.5
1.526	-26.9
1.527	-30
1.528	-32.7
1.529	-35
1.53	-37.1
1.531	-38.9
1.532	-40.6
1.533	-42.4
1.534	-44
1.535	-45.6
1.536	-47.4
1.537	-49.4
1.538	-51.6
1.539	-53.8
1.54	-56.2
1.541	-58.6
1.542	-61
1.543	-63.4
1.544	-65.5
1.545	-67.4
1.546	-68.9
1.547	-70.1
1.548	-71
1.549	-71.5
1.55	-71.6
1.551	-71.5
1.552	-71.2
1.553	-70.9
1.554	-70.6
1.555	-70.4
1.556	-70.4
1.557	-70.7
1.558	-71.4
1.559	-72.3
1.56	-73.6
1.561	-75.1
1.562	-76.7
1.563	-78.4
1.564	-80
1.565	-81.5
1.566	-82.8
1.567	-83.8
1.568	-84.4
1.569	-84.6
1.57	-84.5
1.571	-84.1
1.572	-83.5
1.573	-82.8
1.574	-82
1.575	-81.2
1.576	-80.5
1.577	-80.1
1.578	-79.9
1.579	-79.8
1.58	-80.1
1.581	-80.5
1.582	-80.9
1.583	-81.5
1.584	-81.9
1.585	-82.3
1.586	-82.4
1.587	-82.3
1.588	-81.8
1.589	-81.2
1.59	-80.3
1.591	-79.2
1.592	-78
1.593	-76.8
1.594	-75.7
1.595	-74.7
1.596	-73.9
1.597	-73.5
1.598	-73.3
1.599	-73.4
1.6	-73.7
1.601	-74.1
1.602	-74.7
1.603	-75.2
1.604	-75.7
1.605	-75.9
1.606	-76
1.607	-75.7
1.608	-75.2
1.609	-74.5
1.61	-73.5
1.611	-72.5
1.612	-71.5
1.613	-70.6
1.614	-69.9
1.615	-69.5
1.616	-69.5
1.617	-70
1.618	-70.8
1.619	-71.9
1.62	-73.4
1.621	-75
1.622	-76.7
1.623	-78.3
1.624	-79.6
1.625	-80.6
1.626	-81.2
1.627	-81.2
1.628	-80.8
1.629	-79.8
1.63	-78.5
1.631	-76.9
1.632	-75.1
1.633	-73.2
1.634	-71.5
1.635	-70
1.636	-68.8
1.637	-68.1
1.638	-67.7
1.639	-67.8
1.64	-68.1
1.641	-68.7
1.642	-69.4
1.643	-70
1.644	-70.5
1.645	-70.7
1.646	-70.4
1.647	-69.7
1.648	-68.4
1.649	-66.7
1.65	-64.7
1.651	-62.3
1.652	-59.8
1.653	-57.3
1.654	-55.1
1.655	-53.2
1.656	-51.8
1.657	-51
1.658	-50.8
1.659	-51.3
1.66	-52.3
1.661	-53.9
1.662	-55.8
1.663	-58
1.664	-60.2
1.665	-62.3
1.666	-64.2
1.667	-65.7
1.668	-66.8
1.669	-67.5
1.67	-67.7
1.671	-67.5
1.672	-67.1
1.673	-66.5
1.674	-65.8
1.675	-65.1
1.676	-64.6
1.677	-64.3
1.678	-64.2
1.679	-64.4
1.68	-64.8
1.681	-65.3
1.682	-65.9
1.683	-66.4
1.684	-66.8
1.685	-67
1.686	-66.8
1.687	-66.3
1.688	-65.4
1.689	-64.1
1.69	-62.6
1.691	-60.9
1.692	-59.1
1.693	-57.4
1.694	-55.8
1.695	-54.5
1.696	-53.5
1.697	-52.9
1.698	-52.6
1.699	-52.7
1.7	-52.9
1.701	-53.3
1.702	-53.7
1.703	-53.9
1.704	-53.9
1.705	-53.5
1.706	-52.7
1.707	-51.6
1.708	-50
1.709	-48.2
1.71	-46.2
1.711	-44.2
1.712	-42.5
1.713	-41
1.714	-40.1
1.715	-39.9
1.716	-40.4
1.717	-41.6
1.718	-43.5
1.719	-46.1
1.72	-49
1.721	-52.3
1.722	-55.5
1.723	-58.5
1.724	-61
1.725	-62.8
1.726	-63.9
1.727	-64.1
1.728	-63.3
1.729	-61.8
1.73	-59.5
1.731	-56.7
1.732	-53.7
1.733	-50.6
1.734	-47.7
1.735	-45.4
1.736	-43.7
1.737	-42.8
1.738	-42.8
1.739	-43.7
1.74	-45.3
1.741	-47.6
1.742	-50.4
1.743	-53.4
1.744	-56.3
1.745	-58.9
1.746	-61.1
1.747	-62.5
1.748	-63.3
1.749	-63.2
1.75	-62.3
1.751	-60.8
1.752	-58.8
1.753	-56.4
1.754	-54
1.755	-51.7
1.756	-49.7
1.757	-48.1
1.758	-47.2
1.759	-46.9
1.76	-47.3
1.761	-48.2
1.762	-49.5
1.763	-51.2
1.764	-52.9
1.765	-54.5
1.766	-55.9
1.767	-56.9
1.768	-57.4
1.769	-57.3
1.77	-56.7
1.771	-55.6
1.772	-54.2
1.773	-52.6
1.774	-50.9
1.775	-49.4
1.776	-48.1
1.777	-47.2
1.778	-46.9
1.779	-47
1.78	-47.7
1.781	-48.9
1.782	-50.4
1.783	-52.1
1.784	-53.8
1.785	-55.5
1.786	-56.9
1.787	-58
1.788	-58.7
1.789	-58.9
1.79	-58.7
1.791	-58.1
1.792	-57.2
1.793	-56.2
1.794	-55.1
1.795	-54.2
1.796	-53.5
1.797	-53.2
1.798	-53.2
1.799	-53.6
1.8	-54.4
1.801	-55.5
1.802	-56.8
1.803	-58.1
1.804	-59.4
1.805	-60.4
1.806	-61
1.807	-61.2
1.808	-60.9
1.809	-60.1
1.81	-58.9
1.811	-57.2
1.812	-55.4
1.813	-53.3
1.814	-51.4
1.815	-49.6
1.816	-48.2
1.817	-47.2
1.818	-46.7
1.819	-46.6
1.82	-47.1
1.821	-47.9
1.822	-48.9
1.823	-50.1
1.824	-51.3
1.825	-52.2
1.826	-52.9
1.827	-53.1
1.828	-52.9
1.829	-52.2
1.83	-51
1.831	-49.5
1.832	-47.8
1.833	-46
1.834	-44.2
1.835	-42.7
1.836	-41.5
1.837	-40.9
1.838	-40.8
1.839	-41.3
1.84	-42.3
1.841	-43.9
1.842	-45.8
1.843	-48
1.844	-50.2
1.845	-52.4
1.846	-54.2
1.847	-55.7
1.848	-56.6
1.849	-56.9
1.85	-56.7
1.851	-55.9
1.852	-54.7
1.853	-53.1
1.854	-51.3
1.855	-49.4
1.856	-47.6
1.857	-46.1
1.858	-44.9
1.859	-44.2
1.86	-43.9
1.861	-44
1.862	-44.6
1.863	-45.6
1.864	-46.7
1.865	-48
1.866	-49.2
1.867	-50.3
1.868	-51.1
1.869	-51.5
1.87	-51.5
1.871	-51.1
1.872	-50.3
1.873	-49.2
1.874	-47.7
1.875	-46
1.876	-44.2
1.877	-42.5
1.878	-40.8
1.879	-39.4
1.88	-38.2
1.881	-37.4
1.882	-37
1.883	-36.9
1.884	-37.1
1.885	-37.6
1.886	-38.4
1.887	-39.4
1.888	-40.4
1.889	-41.4
1.89	-42.3
1.891	-43.1
1.892	-43.6
1.893	-43.7
1.894	-43.5
1.895	-42.8
1.896	-41.7
1.897	-40
1.898	-37.8
1.899	-35.1
1.9	-31.8
1.901	-28.1
1.902	-24
1.903	-19.5
1.904	-14.7
1.905	-9.8
1.906	-4.9
1.907	-0
1.908	4.6
1.909	8.9
1.91	12.7
1.911	15.9
1.912	18.5
1.913	20.5
1.914	21.8
1.915	22.5
1.916	22.6
1.917	22.4
1.918	21.9
1.919	21.3
1.92	20.7
1.921	20.3
1.922	20.2
1.923	20.5
1.924	21.2
1.925	22.4
1.926	24.1
1.927	26.2
1.928	28.5
1.929	31
1.93	33.4
1.931	35.6
1.932	37.5
1.933	38.9
1.934	39.7
1.935	39.9
1.936	39.5
1.937	38.6
1.938	37.1
1.939	35.2
1.94	33
1.941	30.8
1.942	28.6
1.943	26.4
1.944	24.5
1.945	22.8
1.946	21.4
1.947	20.2
1.948	19
1.949	17.8
1.95	16.4
1.951	14.7
1.952	12.5
1.953	9.6
1.954	6.1
1.955	1.8
1.956	-3.1
1.957	-8.7
1.958	-14.8
1.959	-21.1
1.96	-27.5
1.961	-33.7
1.962	-39.5
1.963	-44.8
1.964	-49.2
1.965	-52.7
1.966	-55.4
1.967	-57.1
1.968	-58
1.969	-58.2
1.97	-57.8
1.971	-57.3
1.972	-56.6
1.973	-56.1
1.974	-55.9
1.975	-56.1
1.976	-56.8
1.977	-58
1.978	-59.7
1.979	-61.6
1.98	-63.6
1.981	-65.6
1.982	-67.3
1.983	-68.6
1.984	-69.3
1.985	-69.3
1.986	-68.5
1.987	-67.1
1.988	-65.1
1.989	-62.7
1.99	-60.1
1.991	-57.6
1.992	-55.4
1.993	-53.8
1.994	-52.9
1.995	-52.9
1.996	-53.7
1.997	-55.5
1.998	-58
1.999	-61.1
2	-64.6
2.001	-68.1
2.002	-71.4
2.003	-74.2
2.004	-76.3
2.005	-77.6
2.006	-77.8
2.007	-77.2
2.008	-75.7
2.009	-73.6
2.01	-71.1
2.011	-68.5
2.012	-66.1
2.013	-64.2
2.014	-63
2.015	-62.6
2.016	-63.1
2.017	-64.4
2.018	-66.6
2.019	-69.2
2.02	-71.9
2.021	-74.4
2.022	-76.5
2.023	-77.8
2.024	-78.2
2.025	-77.4
2.026	-75.6
2.027	-72.8
2.028	-69.6
2.029	-66.3
2.03	-63.5
2.031	-61.9
2.032	-62
2.033	-64.1
2.034	-69.1
2.035	-77.3
2.036	-88.7
2.037	-103.1
2.038	-119.4
2.039	-137.7
2.04	-156.8
2.041	-175.9
2.042	-193.3
2.043	-206.9
2.044	-216.2
2.045	-219.7
2.046	-216.5
2.047	-205.4
2.048	-185
2.049	-155.9
2.05	-117.9
2.051	-71.8
2.052	-17.9
2.053	43.1
2.054	109.2
2.055	179
2.056	251.1
2.057	323.7
2.058	395.3
2.059	463.8
2.06	528.3
2.061	587.7
2.062	641
2.063	686.9
2.064	724.7
2.065	754.7
2.066	776.9
2.067	791.2
2.068	797
2.069	794.5
2.07	784.8
2.071	768.3
2.072	745.3
2.073	715.7
2.074	680
2.075	639.2
2.076	594.4
2.077	545.8
2.078	493.9
2.079	439.8
2.08	384.7
2.081	329.6
2.082	275.3
2.083	222.8
2.084	173.5
2.085	128.1
2.086	87.2
2.087	51.6
2.088	21.4
2.089	-2.2
2.09	-19.9
2.091	-32.1
2.092	-39.3
2.093	-42
2.094	-40.3
2.095	-35.7
2.096	-29.3
2.097	-22
2.098	-14.6
2.099	-7.3
2.1	-1.1
2.101	3.3
2.102	5.7
2.103	6
2.104	4.7
2.105	1.8
2.106	-2.6
2.107	-8.1
2.108	-14.3
2.109	-20.4
2.11	-26.3
2.111	-31.7
2.112	-36.4
2.113	-40.2
2.114	-43.1
2.115	-45.1
2.116	-46.4
2.117	-47
2.118	-47.2
2.119	-47.2
2.12	-47.2
2.121	-47.2
2.122	-47.4
2.123	-47.9
2.124	-48.6
2.125	-49.4
2.126	-50.3
2.127	-51.3
2.128	-52.1
2.129	-52.8
2.13	-53.1
2.131	-53.2
2.132	-53
2.133	-52.6
2.134	-51.9
2.135	-51.2
2.136	-50.4
2.137	-49.7
2.138	-49.2
2.139	-48.9
2.14	-48.8
2.141	-49
2.142	-49.3
2.143	-49.7
2.144	-50.1
2.145	-50.4
2.146	-50.4
2.147	-50.2
2.148	-49.6
2.149	-48.5
2.15	-47.1
2.151	-45.3
2.152	-43.2
2.153	-40.9
2.154	-38.6
2.155	-36.4
2.156	-34.4
2.157	-32.8
2.158	-31.5
2.159	-30.7
2.16	-30.3
2.161	-30.3
2.162	-30.5
2.163	-31
2.164	-31.4
2.165	-31.7
2.166	-31.8
2.167	-31.6
2.168	-30.8
2.169	-29.7
2.17	-28.1
2.171	-26.2
2.172	-24
2.173	-21.6
2.174	-19.3
2.175	-17.2
2.176	-15.4
2.177	-14.1
2.178	-13.2
2.179	-12.8
2.18	-13.1
2.181	-13.7
2.182	-14.7
2.183	-15.9
2.184	-17.1
2.185	-18.3
2.186	-19.1
2.187	-19.6
2.188	-19.5
2.189	-18.8
2.19	-17.7
2.191	-16
2.192	-13.9
2.193	-11.4
2.194	-8.8
2.195	-6.2
2.196	-3.6
2.197	-1.3
2.198	0.8
2.199	2.5
2.2	3.9
2.201	4.9
2.202	5.8
2.203	6.5
2.204	7.1
2.205	7.9
2.206	8.8
2.207	10
2.208	11.6
2.209	13.5
2.21	15.7
2.211	18.1
2.212	20.7
2.213	23.4
2.214	26
2.215	28.4
2.216	30.5
2.217	32.3
2.218	33.7
2.219	34.6
2.22	35.1
2.221	35.3
2.222	35.3
2.223	35.1
2.224	35
2.225	34.9
2.226	35.1
2.227	35.5
2.228	36.2
2.229	37.3
2.23	38.6
2.231	40.2
2.232	41.9
2.233	43.7
2.234	45.3
2.235	46.8
2.236	48.1
2.237	49.1
2.238	49.9
2.239	50.4
2.24	50.7
2.241	50.9
2.242	51.2
2.243	51.7
2.244	52.4
2.245	53.6
2.246	55.3
2.247	57.5
2.248	60.3
2.249	63.6
2.25	67.3
2.251	71.3
2.252	75.5
2.253	79.8
2.254	83.9
2.255	87.8
2.256	91.2
2.257	94.3
2.258	96.9
2.259	99.1
2.26	100.8
2.261	102.3
2.262	103.5
2.263	104.8
2.264	106.2
2.265	107.8
2.266	109.7
2.267	112.1
2.268	115
2.269	118.3
2.27	122
2.271	126
2.272	130.2
2.273	134.6
2.274	139
2.275	143.2
2.276	147.1
2.277	150.8
2.278	154.3
2.279	157.4
2.28	160.2
2.281	162.9
2.282	165.4
2.283	168.1
2.284	170.7
2.285	173.5
2.286	176.6
2.287	179.8
2.288	183.4
2.289	186.9
2.29	190.6
2.291	194.1
2.292	197.4
2.293	200.5
2.294	203.1
2.295	205.2
2.296	206.7
2.297	207.7
2.298	208.2
2.299	208.4
2.3	208.2
2.301	208.1
2.302	208
2.303	208.4
2.304	209.2
2.305	210.6
2.306	212.8
2.307	215.7
2.308	219.4
2.309	223.7
2.31	228.5
2.311	233.6
2.312	238.7
2.313	243.7
2.314	248.1
2.315	251.9
2.316	254.9
2.317	256.9
2.318	257.8
2.319	257.6
2.32	256.3
2.321	254.1
2.322	251.2
2.323	247.5
2.324	243.5
2.325	239.2
2.326	234.8
2.327	230.5
2.328	226.3
2.329	222.2
2.33	218.2
2.331	214.4
2.332	210.5
2.333	206.4
2.334	201.9
2.335	197.1
2.336	191.7
2.337	185.6
2.338	178.7
2.339	171.1
2.34	162.8
2.341	154
2.342	144.6
2.343	134.8
2.344	125
2.345	115.1
2.346	105.5
2.347	96.1
2.348	87.1
2.349	78.7
2.35	70.9
2.351	63.6
2.352	56.8
2.353	50.4
2.354	44.6
2.355	39.2
2.356	34
2.357	29
2.358	24.2
2.359	19.6
2.36	15.2
2.361	10.9
2.362	6.8
2.363	2.9
2.364	-0.7
2.365	-4.1
2.366	-7.2
2.367	-10.1
2.368	-12.8
2.369	-15.3
2.37	-17.6
2.371	-20
2.372	-22.4
2.373	-25
2.374	-27.7
2.375	-30.6
2.376	-33.7
2.377	-37
2.378	-40.6
2.379	-44.2
2.38	-47.8
2.381	-51.3
2.382	-54.7
2.383	-57.8
2.384	-60.5
2.385	-62.8
2.386	-64.7
2.387	-66.2
2.388	-67.4
2.389	-68.3
2.39	-68.9
2.391	-69.5
2.392	-70.1
2.393	-70.7
2.394	-71.5
2.395	-72.4
2.396	-73.6
2.397	-74.8
2.398	-76.1
2.399	-77.4
2.4	-78.5
2.401	-79.4
2.402	-79.9
2.403	-79.9
2.404	-79.5
2.405	-78.5
2.406	-77.1
2.407	-75.3
2.408	-73.2
2.409	-71.1
2.41	-69
2.411	-67.2
2.412	-65.8
2.413	-65
2.414	-64.9
2.415	-65.6
2.416	-67.1
2.417	-69.2
2.418	-71.9
2.419	-75.1
2.42	-78.4
2.421	-81.7
2.422	-84.8
2.423	-87.4
2.424	-89.3
2.425	-90.5
2.426	-90.9
2.427	-90.4
2.428	-89.1
2.429	-87.2
2.43	-84.9
2.431	-82.3
2.432	-79.6
2.433	-77
2.434	-74.9
2.435	-73.2
2.436	-72.1
2.437	-71.7
2.438	-71.8
2.439	-72.5
2.44	-73.6
2.441	-75
2.442	-76.3
2.443	-77.6
2.444	-78.5
2.445	-79
2.446	-79.1
2.447	-78.5
2.448	-77.4
2.449	-75.9
2.45	-74.1
2.451	-72.2
2.452	-70.3
2.453	-68.6
2.454	-67.2
2.455	-66.4
2.456	-66.1
2.457	-66.5
2.458	-67.4
2.459	-68.7
2.46	-70.4
2.461	-72.3
2.462	-74.2
2.463	-75.8
2.464	-77.1
2.465	-77.8
2.466	-77.9
2.467	-77.4
2.468	-76.3
2.469	-74.6
2.47	-72.6
2.471	-70.3
2.472	-68
2.473	-65.9
2.474	-64.2
2.475	-63.1
2.476	-62.6
2.477	-62.8
2.478	-63.8
2.479	-65.5
2.48	-67.8
2.481	-70.4
2.482	-73.3
2.483	-76.1
2.484	-78.7
2.485	-80.9
2.486	-82.6
2.487	-83.5
2.488	-83.8
2.489	-83.2
2.49	-82
2.491	-80.2
2.492	-77.9
2.493	-75.3
2.494	-72.6
2.495	-70
2.496	-67.5
2.497	-65.3
2.498	-63.6
2.499	-62.2
2.5	-61.4
2.501	-60.9
2.502	-60.7
2.503	-60.8
2.504	-61.1
2.505	-61.5
2.506	-61.8
2.507	-62.2
2.508	-62.4
2.509	-62.5
2.51	-62.5
2.511	-62.5
2.512	-62.5
2.513	-62.5
2.514	-62.5
2.515	-62.7
2.516	-63
2.517	-63.4
2.518	-63.8
2.519	-64.4
2.52	-64.9
2.521	-65.3
2.522	-65.5
2.523	-65.5
2.524	-65.3
2.525	-64.7
2.526	-63.9
2.527	-62.9
2.528	-61.6
2.529	-60.3
2.53	-59
2.531	-57.8
2.532	-56.8
2.533	-56
2.534	-55.7
2.535	-55.6
2.536	-56
2.537	-56.7
2.538	-57.6
2.539	-58.6
2.54	-59.6
2.541	-60.5
2.542	-61.2
2.543	-61.5
2.544	-61.3
2.545	-60.7
2.546	-59.6
2.547	-58.1
2.548	-56.3
2.549	-54.2
2.55	-52.2
2.551	-50.3
2.552	-48.6
2.553	-47.4
2.554	-46.7
2.555	-46.7
2.556	-47.3
2.557	-48.6
2.558	-50.3
2.559	-52.5
2.56	-54.9
2.561	-57.4
2.562	-59.7
2.563	-61.8
2.564	-63.3
2.565	-64.3
2.566	-64.6
2.567	-64.2
2.568	-63
2.569	-61.3
2.57	-59.1
2.571	-56.6
2.572	-53.9
2.573	-51.2
2.574	-48.7
2.575	-46.6
2.576	-45
2.577	-44
2.578	-43.6
2.579	-43.8
2.58	-44.6
2.581	-45.8
2.582	-47.5
2.583	-49.4
2.584	-51.4
2.585	-53.5
2.586	-55.5
2.587	-57.3
2.588	-58.8
2.589	-60.1
2.59	-61.1
2.591	-61.9
2.592	-62.4
2.593	-62.8
2.594	-63
2.595	-63.1
2.596	-63.2
2.597	-63.2
2.598	-63.3
2.599	-63.3
2.6	-63.3
2.601	-63.2
2.602	-63
2.603	-62.8
2.604	-62.4
2.605	-61.8
2.606	-61.2
2.607	-60.4
2.608	-59.5
2.609	-58.5
2.61	-57.5
2.611	-56.5
2.612	-55.6
2.613	-54.7
2.614	-54
2.615	-53.4
2.616	-53
2.617	-52.6
2.618	-52.4
2.619	-52.2
2.62	-52
2.621	-51.9
2.622	-51.8
2.623	-51.6
2.624	-51.4
2.625	-51.3
2.626	-51.1
2.627	-51
2.628	-51.1
2.629	-51.2
2.63	-51.6
2.631	-52.2
2.632	-53
2.633	-54
2.634	-55.2
2.635	-56.5
2.636	-57.8
2.637	-59.1
2.638	-60.2
2.639	-61.1
2.64	-61.7
2.641	-61.9
2.642	-61.7
2.643	-61
2.644	-59.9
2.645	-58.5
2.646	-56.8
2.647	-54.9
2.648	-52.9
2.649	-51
2.65	-49.2
2.651	-47.8
2.652	-46.6
2.653	-45.8
2.654	-45.4
2.655	-45.4
2.656	-45.8
2.657	-46.3
2.658	-47
2.659	-47.8
2.66	-48.5
2.661	-49.1
2.662	-49.5
2.663	-49.6
2.664	-49.5
2.665	-49.1
2.666	-48.6
2.667	-48
2.668	-47.4
2.669	-46.8
2.67	-46.5
2.671	-46.4
2.672	-46.6
2.673	-47.1
2.674	-47.9
2.675	-49
2.676	-50.3
2.677	-51.6
2.678	-52.9
2.679	-54
2.68	-54.8
2.681	-55.2
2.682	-55.2
2.683	-54.7
2.684	-53.7
2.685	-52.4
2.686	-50.8
2.687	-48.9
2.688	-47.1
2.689	-45.4
2.69	-43.9
2.691	-42.8
2.692	-42.2
2.693	-42.1
2.694	-42.5
2.695	-43.4
2.696	-44.7
2.697	-46.3
2.698	-48
2.699	-49.6
2.7	-51
2.701	-52.1
2.702	-52.6
2.703	-52.7
2.704	-52.1
2.705	-51
2.706	-49.4
2.707	-47.5
2.708	-45.4
2.709	-43.3
2.71	-41.3
2.711	-39.7
2.712	-38.5
2.713	-37.8
2.714	-37.8
2.715	-38.3
2.716	-39.4
2.717	-41
2.718	-42.8
2.719	-44.7
2.72	-46.5
2.721	-48.1
2.722	-49.3
2.723	-50
2.724	-50
2.725	-49.4
2.726	-48.2
2.727	-46.5
2.728	-44.4
2.729	-41.9
2.73	-39.4
2.731	-37
2.732	-34.8
2.733	-33
2.734	-31.6
2.735	-30.8
2.736	-30.5
2.737	-30.6
2.738	-31.2
2.739	-32
2.74	-33
2.741	-34
2.742	-34.9
2.743	-35.5
2.744	-35.8
2.745	-35.8
2.746	-35.4
2.747	-34.7
2.748	-33.7
2.749	-32.5
2.75	-31.3
2.751	-30.1
2.752	-29
2.753	-28
2.754	-27.2
2.755	-26.6
2.756	-26.1
2.757	-25.6
2.758	-24.9
2.759	-24.1
2.76	-22.8
2.761	-21.1
2.762	-18.7
2.763	-15.6
2.764	-11.8
2.765	-7.3
2.766	-2.3
2.767	3.3
2.768	9.1
2.769	15
2.77	20.7
2.771	26
2.772	30.8
2.773	34.9
2.774	38.1
2.775	40.4
2.776	41.9
2.777	42.5
2.778	42.4
2.779	41.8
2.78	40.7
2.781	39.5
2.782	38.4
2.783	37.4
2.784	36.6
2.785	36.3
2.786	36.3
2.787	36.7
2.788	37.4
2.789	38.2
2.79	39.1
2.791	39.8
2.792	40.3
2.793	40.3
2.794	39.7
2.795	38.6
2.796	36.9
2.797	34.6
2.798	31.8
2.799	28.7
2.8	25.3
2.801	21.8
2.802	18.4
2.803	15.1
2.804	12
2.805	9.3
2.806	6.8
2.807	4.6
2.808	2.6
2.809	0.6
2.81	-1.3
2.811	-3.5
2.812	-5.9
2.813	-8.7
2.814	-11.9
2.815	-15.4
2.816	-19.4
2.817	-23.6
2.818	-28
2.819	-32.4
2.82	-36.6
2.821	-40.6
2.822	-44
2.823	-47
2.824	-49.3
2.825	-51
2.826	-52.1
2.827	-52.7
2.828	-52.9
2.829	-52.9
2.83	-52.8
2.831	-52.8
2.832	-53.1
2.833	-53.7
2.834	-54.6
2.835	-55.9
2.836	-57.6
2.837	-59.6
2.838	-61.6
2.839	-63.6
2.84	-65.3
2.841	-66.7
2.842	-67.7
2.843	-68
2.844	-67.7
2.845	-66.9
2.846	-65.5
2.847	-63.8
2.848	-61.9
2.849	-60
2.85	-58.3
2.851	-57
2.852	-56.3
2.853	-56.1
2.854	-56.6
2.855	-57.6
2.856	-59.2
2.857	-61.1
2.858	-63.2
2.859	-65.2
2.86	-66.8
2.861	-68
2.862	-68.5
2.863	-68.3
2.864	-67.2
2.865	-65.4
2.866	-63.1
2.867	-60.3
2.868	-57.3
2.869	-54.4
2.87	-51.8
2.871	-49.7
2.872	-48.3
2.873	-47.8
2.874	-48.1
2.875	-49.1
2.876	-50.7
2.877	-52.6
2.878	-54.9
2.879	-57.1
2.88	-58.9
2.881	-60.3
2.882	-61.2
2.883	-61.6
2.884	-61.7
2.885	-61.7
2.886	-62.1
2.887	-63.2
2.888	-65.3
2.889	-69.1
2.89	-75
2.891	-83.4
2.892	-94.1
2.893	-106.8
2.894	-121.5
2.895	-137.7
2.896	-154.8
2.897	-171.4
2.898	-185.7
2.899	-197
2.9	-204.1
2.901	-205.8
2.902	-200.7
2.903	-187
2.904	-164.7
2.905	-133.5
2.906	-93.5
2.907	-44.8
2.908	12.5
2.909	76.4
2.91	145.8
2.911	219
2.912	294.4
2.913	370.2
2.914	443.9
2.915	514.2
2.916	579.7
2.917	638.8
2.918	690.2
2.919	732.8
2.92	766.5
2.921	791.5
2.922	807.6
2.923	814.6
2.924	812.6
2.925	803
2.926	786.9
2.927	764.6
2.928	736.4
2.929	702.9
2.93	665.4
2.931	624.8
2.932	581.5
2.933	535.7
2.934	488
2.935	439.4
2.936	390.6
2.937	342
2.938	293.9
2.939	247.6
2.94	203.5
2.941	162.3
2.942	124.4
2.943	90.2
2.944	61.1
2.945	36.6
2.946	16.9
2.947	1.9
2.948	-8.6
2.949	-14.2
2.95	-16
2.951	-14.8
2.952	-11.4
2.953	-6.5
2.954	-0.2
2.955	6.2
2.956	11.9
2.957	16.3
2.958	19
2.959	20.2
2.96	19.5
2.961	16.8
2.962	12.3
2.963	6.3
2.964	-0.6
2.965	-8.2
2.966	-15.9
2.967	-23.5
2.968	-30.6
2.969	-36.7
2.97	-41.8
2.971	-45.6
2.972	-48.3
2.973	-49.8
2.974	-50.3
2.975	-49.9
2.976	-48.9
2.977	-47.5
2.978	-45.9
2.979	-44.3
2.98	-42.8
2.981	-41.6
2.982	-40.7
2.983	-40.1
2.984	-39.8
2.985	-39.7
2.986	-39.8
2.987	-40.1
2.988	-40.4
2.989	-40.6
2.99	-40.9
2.991	-41
2.992	-41.1
2.993	-41.2
2.994	-41.3
2.995	-41.4
2.996	-41.6
2.997	-41.9
2.998	-42.3
2.999	-42.9
3	-43.6
3.001	-44.5
3.002	-45.3
3.003	-46.2
3.004	-47
3.005	-47.6
3.006	-48.1
3.007	-48.4
3.008	-48.3
3.009	-47.9
3.01	-47.3
3.011	-46.3
3.012	-45.1
3.013	-43.6
3.014	-41.9
3.015	-40.1
3.016	-38.1
3.017	-36.1
3.018	-34
3.019	-32
3.02	-30
3.021	-28.2
3.022	-26.4
3.023	-24.8
3.024	-23.4
3.025	-22.1
3.026	-21.2
3.027	-20.5
3.028	-20
3.029	-19.8
3.03	-20
3.031	-20.3
3.032	-20.9
3.033	-21.7
3.034	-22.6
3.035	-23.5
3.036	-24.3
3.037	-25
3.038	-25.4
3.039	-25.5
3.04	-25.2
3.041	-24.5
3.042	-23.4
3.043	-21.8
3.044	-19.8
3.045	-17.5
3.046	-15
3.047	-12.3
3.048	-9.6
3.049	-7
3.05	-4.6
3.051	-2.4
3.052	-0.6
3.053	1
3.054	2.2
3.055	3.1
3.056	3.8
3.057	4.4
3.058	5
3.059	5.6
3.06	6.4
3.061	7.4
3.062	8.6
3.063	10.2
3.064	11.9
3.065	13.9
3.066	16.1
3.067	18.3
3.068	20.5
3.069	22.5
3.07	24.3
3.071	25.8
3.072	27
3.073	28
3.074	28.5
3.075	28.8
3.076	28.9
3.077	29
3.078	29
3.079	29.2
3.08	29.5
3.081	30
3.082	30.8
3.083	31.9
3.084	33.3
3.085	34.7
3.086	36.3
3.087	37.9
3.088	39.4
3.089	40.7
3.09	41.7
3.091	42.5
3.092	43
3.093	43.2
3.094	43.3
3.095	43.3
3.096	43.4
3.097	43.8
3.098	44.5
3.099	45.7
3.1	47.6
3.101	50
3.102	53.1
3.103	57
3.104	61.3
3.105	65.9
3.106	70.8
3.107	75.7
3.108	80.5
3.109	84.8
3.11	88.6
3.111	91.7
3.112	94.1
3.113	95.8
3.114	96.8
3.115	97.3
3.116	97.3
3.117	97.2
3.118	97.1
3.119	97.2
3.12	97.8
3.121	99
3.122	100.9
3.123	103.6
3.124	107
3.125	111.1
3.126	115.7
3.127	120.7
3.128	125.9
3.129	131
3.13	135.9
3.131	140.2
3.132	144
3.133	147.2
3.134	149.7
3.135	151.5
3.136	152.8
3.137	153.8
3.138	154.7
3.139	155.6
3.14	156.6
3.141	158.1
3.142	160.2
3.143	163
3.144	166.4
3.145	170.4
3.146	175
3.147	180
3.148	185.3
3.149	190.6
3.15	195.7
3.151	200.5
3.152	204.7
3.153	208.4
3.154	211.3
3.155	213.5
3.156	215.1
3.157	216.1
3.158	216.8
3.159	217.2
3.16	217.5
3.161	217.9
3.162	218.5
3.163	219.4
3.164	220.6
3.165	222.2
3.166	224
3.167	226
3.168	228
3.169	229.8
3.17	231.4
3.171	232.6
3.172	233.2
3.173	233.2
3.174	232.4
3.175	231.1
3.176	229.2
3.177	226.8
3.178	224.1
3.179	221.1
3.18	218.1
3.181	215.2
3.182	212.4
3.183	209.8
3.184	207.5
3.185	205.3
3.186	203.3
3.187	201.2
3.188	198.9
3.189	196.1
3.19	192.9
3.191	188.9
3.192	184.2
3.193	178.4
3.194	171.7
3.195	164.3
3.196	156.2
3.197	147.4
3.198	138.2
3.199	129
3.2	119.9
3.201	111.1
3.202	102.9
3.203	95.1
3.204	88.3
3.205	82.2
3.206	76.9
3.207	72.1
3.208	67.8
3.209	63.9
3.21	60.1
3.211	56.3
3.212	52.3
3.213	47.8
3.214	43
3.215	37.8
3.216	32.2
3.217	26.2
3.218	19.9
3.219	13.7
3.22	7.6
3.221	1.7
3.222	-3.7
3.223	-8.6
3.224	-12.8
3.225	-16.3
3.226	-19.2
3.227	-21.5
3.228	-23.4
3.229	-25
3.23	-26.3
3.231	-27.7
3.232	-29.3
3.233	-31.1
3.234	-33.2
3.235	-35.7
3.236	-38.5
3.237	-41.6
3.238	-44.9
3.239	-48.2
3.24	-51.4
3.241	-54.5
3.242	-57.2
3.243	-59.6
3.244	-61.4
3.245	-62.8
3.246	-63.7
3.247	-64.3
3.248	-64.7
3.249	-64.9
3.25	-65
3.251	-65.2
3.252	-65.7
3.253	-66.4
3.254	-67.4
3.255	-68.6
3.256	-70.1
3.257	-71.7
3.258	-73.3
3.259	-74.8
3.26	-76
3.261	-76.8
3.262	-77.2
3.263	-77
3.264	-76.3
3.265	-75.1
3.266	-73.4
3.267	-71.5
3.268	-69.5
3.269	-67.4
3.27	-65.6
3.271	-64.1
3.272	-63.2
3.273	-62.7
3.274	-62.9
3.275	-63.6
3.276	-64.8
3.277	-66.4
3.278	-68.1
3.279	-69.9
3.28	-71.5
3.281	-72.8
3.282	-73.6
3.283	-73.8
3.284	-73.5
3.285	-72.5
3.286	-71
3.287	-69.1
3.288	-67
3.289	-64.9
3.29	-62.9
3.291	-61.2
3.292	-60
3.293	-59.5
3.294	-59.7
3.295	-60.5
3.296	-62
3.297	-64
3.298	-66.4
3.299	-69.1
3.3	-71.7
3.301	-74.2
3.302	-76.3
3.303	-77.9
3.304	-78.8
3.305	-79.1
3.306	-78.8
3.307	-77.9
3.308	-76.5
3.309	-74.8
3.31	-72.9
3.311	-71
3.312	-69.3
3.313	-67.9
3.314	-66.9
3.315	-66.3
3.316	-66.2
3.317	-66.5
3.318	-67.1
3.319	-68
3.32	-69
3.321	-69.9
3.322	-70.8
3.323	-71.4
3.324	-71.7
3.325	-71.8
3.326	-71.5
3.327	-71
3.328	-70.2
3.329	-69.4
3.33	-68.5
3.331	-67.8
3.332	-67.2
3.333	-66.8
3.334	-66.7
3.335	-66.8
3.336	-67
3.337	-67.4
3.338	-67.7
3.339	-67.9
3.34	-67.9
3.341	-67.6
3.342	-66.9
3.343	-65.7
3.344	-64.2
3.345	-62.4
3.346	-60.3
3.347	-58.1
3.348	-55.9
3.349	-53.9
3.35	-52.2
3.351	-51
3.352	-50.4
3.353	-50.4
3.354	-51
3.355	-52.2
3.356	-53.8
3.357	-55.8
3.358	-57.8
3.359	-59.9
3.36	-61.7
3.361	-63
3.362	-63.8
3.363	-64
3.364	-63.5
3.365	-62.3
3.366	-60.5
3.367	-58.3
3.368	-55.7
3.369	-53
3.37	-50.3
3.371	-47.9
3.372	-45.8
3.373	-44.3
3.374	-43.3
3.375	-42.9
3.376	-43
3.377	-43.6
3.378	-44.5
3.379	-45.6
3.38	-46.7
3.381	-47.8
3.382	-48.5
3.383	-49
3.384	-49
3.385	-48.7
3.386	-48.1
3.387	-47.2
3.388	-46.1
3.389	-45.1
3.39	-44.3
3.391	-43.8
3.392	-43.7
3.393	-44.1
3.394	-45.1
3.395	-46.5
3.396	-48.4
3.397	-50.7
3.398	-53.1
3.399	-55.5
3.4	-57.7
3.401	-59.6
3.402	-61
3.403	-61.8
3.404	-61.8
3.405	-61.2
3.406	-60
3.407	-58.2
3.408	-55.9
3.409	-53.5
3.41	-50.9
3.411	-48.6
3.412	-46.5
3.413	-44.8
3.414	-43.7
3.415	-43.3
3.416	-43.4
3.417	-44.1
3.418	-45.4
3.419	-47
3.42	-48.8
3.421	-50.7
3.422	-52.5
3.423	-54.1
3.424	-55.4
3.425	-56.2
3.426	-56.7
3.427	-56.7
3.428	-56.3
3.429	-55.6
3.43	-54.6
3.431	-53.5
3.432	-52.4
3.433	-51.4
3.434	-50.5
3.435	-49.8
3.436	-49.4
3.437	-49.2
3.438	-49.2
3.439	-49.4
3.44	-49.7
3.441	-50.1
3.442	-50.5
3.443	-50.8
3.444	-51
3.445	-51.1
3.446	-51.1
3.447	-50.9
3.448	-50.6
3.449	-50.2
3.45	-49.7
3.451	-49.3
3.452	-48.8
3.453	-48.4
3.454	-48.1
3.455	-47.8
3.456	-47.5
3.457	-47.3
3.458	-47
3.459	-46.8
3.46	-46.4
3.461	-46.1
3.462	-45.6
3.463	-45.1
3.464	-44.6
3.465	-44.1
3.466	-43.7
3.467	-43.4
3.468	-43.2
3.469	-43.3
3.47	-43.5
3.471	-44
3.472	-44.7
3.473	-45.6
3.474	-46.5
3.475	-47.5
3.476	-48.4
3.477	-49.1
3.478	-49.6
3.479	-49.8
3.48	-49.7
3.481	-49.2
3.482	-48.3
3.483	-47.1
3.484	-45.7
3.485	-44.2
3.486	-42.7
3.487	-41.3
3.488	-40.2
3.489	-39.4
3.49	-39.1
3.491	-39.3
3.492	-40
3.493	-41.1
3.494	-42.7
3.495	-44.7
3.496	-46.8
3.497	-49
3.498	-51.1
3.499	-53
3.5	-54.5
3.501	-55.6
3.502	-56.2
3.503	-56.3
3.504	-55.9
3.505	-55
3.506	-53.8
3.507	-52.2
3.508	-50.6
3.509	-48.9
3.51	-47.3
3.511	-45.9
3.512	-44.8
3.513	-43.9
3.514	-43.5
3.515	-43.3
3.516	-43.4
3.517	-43.7
3.518	-44.2
3.519	-44.8
3.52	-45.4
3.521	-45.9
3.522	-46.3
3.523	-46.6
3.524	-46.8
3.525	-46.9
3.526	-46.9
3.527	-46.9
3.528	-46.8
3.529	-46.8
3.53	-46.9
3.531	-47.1
3.532	-47.4
3.533	-47.7
3.534	-48.1
3.535	-48.5
3.536	-48.9
3.537	-49.1
3.538	-49.2
3.539	-49.2
3.54	-48.9
3.541	-48.5
3.542	-47.9
3.543	-47.2
3.544	-46.5
3.545	-45.9
3.546	-45.3
3.547	-44.9
3.548	-44.9
3.549	-45.1
3.55	-45.6
3.551	-46.5
3.552	-47.6
3.553	-48.9
3.554	-50.2
3.555	-51.6
3.556	-52.8
3.557	-53.8
3.558	-54.4
3.559	-54.5
3.56	-54.1
3.561	-53.3
3.562	-51.9
3.563	-50.1
3.564	-48
3.565	-45.7
3.566	-43.4
3.567	-41.1
3.568	-39
3.569	-37.2
3.57	-35.8
3.571	-34.8
3.572	-34.3
3.573	-34.2
3.574	-34.6
3.575	-35.3
3.576	-36.2
3.577	-37.2
3.578	-38.2
3.579	-39.3
3.58	-40.2
3.581	-40.9
3.582	-41.6
3.583	-42
3.584	-42.4
3.585	-42.8
3.586	-43.2
3.587	-43.6
3.588	-44.2
3.589	-45
3.59	-45.8
3.591	-46.8
3.592	-47.9
3.593	-48.8
3.594	-49.6
3.595	-50.1
3.596	-50.1
3.597	-49.7
3.598	-48.6
3.599	-46.8
3.6	-44.4
3.601	-41.4
3.602	-37.9
3.603	-34
3.604	-30
3.605	-26
3.606	-22.2
3.607	-18.8
3.608	-16.1
3.609	-14.2
3.61	-13.1
3.611	-12.9
3.612	-13.5
3.613	-14.9
3.614	-17
3.615	-19.4
3.616	-22.1
3.617	-24.7
3.618	-27
3.619	-28.9
3.62	-30.1
3.621	-30.6
3.622	-30.2
3.623	-29
3.624	-26.9
3.625	-24.2
3.626	-21
3.627	-17.3
3.628	-13.3
3.629	-9.3
3.63	-5.3
3.631	-1.5
3.632	2.1
3.633	5.5
3.634	8.7
3.635	11.6
3.636	14.5
3.637	17.3
3.638	20.2
3.639	23.1
3.64	26.3
3.641	29.6
3.642	33.1
3.643	36.6
3.644	40.1
3.645	43.4
3.646	46.3
3.647	48.9
3.648	50.8
3.649	51.9
3.65	52.2
3.651	51.6
3.652	50.3
3.653	48.1
3.654	45.2
3.655	41.9
3.656	38.2
3.657	34.5
3.658	30.9
3.659	27.6
3.66	24.8
3.661	22.6
3.662	21.1
3.663	20.2
3.664	19.9
3.665	20.2
3.666	20.8
3.667	21.7
3.668	22.4
3.669	23
3.67	23.3
3.671	23
3.672	22.1
3.673	20.5
3.674	18.2
3.675	15.3
3.676	11.8
3.677	7.8
3.678	3.5
3.679	-0.9
3.68	-5.4
3.681	-9.7
3.682	-13.8
3.683	-17.6
3.684	-21
3.685	-24.1
3.686	-26.8
3.687	-29.3
3.688	-31.6
3.689	-33.8
3.69	-35.9
3.691	-38.1
3.692	-40.4
3.693	-42.9
3.694	-45.5
3.695	-48.1
3.696	-50.8
3.697	-53.5
3.698	-56.1
3.699	-58.4
3.7	-60.5
3.701	-62.1
3.702	-63.3
3.703	-64
3.704	-64.2
3.705	-63.9
3.706	-63.2
3.707	-62.1
3.708	-60.8
3.709	-59.3
3.71	-57.8
3.711	-56.4
3.712	-55.2
3.713	-54.2
3.714	-53.6
3.715	-53.4
3.716	-53.7
3.717	-54.3
3.718	-55.2
3.719	-56.5
3.72	-58
3.721	-59.6
3.722	-61.2
3.723	-62.7
3.724	-64.1
3.725	-65.1
3.726	-65.8
3.727	-66.1
3.728	-66
3.729	-65.4
3.73	-64.5
3.731	-63.2
3.732	-61.8
3.733	-60.1
3.734	-58.5
3.735	-56.9
3.736	-55.6
3.737	-54.7
3.738	-54.1
3.739	-54.1
3.74	-54.4
3.741	-55.3
3.742	-56.4
3.743	-58
3.744	-59.6
3.745	-61.2
3.746	-62.5
3.747	-63.6
3.748	-64.2
3.749	-64.3
3.75	-63.9
3.751	-63
3.752	-61.7
3.753	-60.3
3.754	-59.2
3.755	-58.8
3.756	-59.3
3.757	-61.2
3.758	-64.7
3.759	-70.2
3.76	-78.1
3.761	-88.4
3.762	-100.9
3.763	-114.6
3.764	-129.8
3.765	-145.6
3.766	-161.3
3.767	-175.5
3.768	-186.4
3.769	-193.4
3.77	-195.5
3.771	-191.5
3.772	-180.3
3.773	-160.3
3.774	-131.8
3.775	-94.8
3.776	-49.4
3.777	4
3.778	65.1
3.779	131.8
3.78	202.9
3.781	276.8
3.782	351.6
3.783	425.7
3.784	496.6
3.785	563
3.786	623.6
3.787	677.1
3.788	722
3.789	757.3
3.79	783.4
3.791	800.4
3.792	808.3
3.793	807.2
3.794	797.3
3.795	780.4
3.796	757.5
3.797	729.4
3.798	696.3
3.799	659.1
3.8	619.2
3.801	577.4
3.802	534.2
3.803	489.7
3.804	444.6
3.805	399.5
3.806	354.9
3.807	311.2
3.808	268.4
3.809	227.5
3.81	188.8
3.811	152.7
3.812	119.5
3.813	89.6
3.814	64
3.815	42.5
3.816	25.1
3.817	11.7
3.818	2.1
3.819	-3.2
3.82	-5.2
3.821	-4.7
3.822	-2.4
3.823	1
3.824	5.5
3.825	9.7
3.826	13
3.827	14.9
3.828	14.9
3.829	13.4
3.83	10
3.831	4.8
3.832	-1.9
3.833	-9.8
3.834	-18
3.835	-26.2
3.836	-33.8
3.837	-40.6
3.838	-46
3.839	-49.6
3.84	-51.6
3.841	-51.8
3.842	-50.6
3.843	-48.1
3.844	-44.7
3.845	-40.9
3.846	-37.2
3.847	-34
3.848	-31.6
3.849	-30.3
3.85	-30.3
3.851	-31.5
3.852	-34
3.853	-37.4
3.854	-41.5
3.855	-45.8
3.856	-50
3.857	-53.8
3.858	-56.6
3.859	-58.4
3.86	-58.8
3.861	-57.9
3.862	-55.8
3.863	-52.5
3.864	-48.5
3.865	-44
3.866	-39.4
3.867	-35.2
3.868	-31.7
3.869	-29.1
3.87	-27.7
3.871	-27.7
3.872	-28.8
3.873	-31.2
3.874	-34.4
3.875	-38.2
3.876	-42.2
3.877	-46.1
3.878	-49.5
3.879	-52
3.88	-53.4
3.881	-53.6
3.882	-52.5
3.883	-50.1
3.884	-46.7
3.885	-42.4
3.886	-37.7
3.887	-32.8
3.888	-28
3.889	-23.8
3.89	-20.4
3.891	-18
3.892	-16.7
3.893	-16.4
3.894	-17.1
3.895	-18.6
3.896	-20.6
3.897	-22.9
3.898	-25.2
3.899	-27
3.9	-28.3
3.901	-28.8
3.902	-28.4
3.903	-26.9
3.904	-24.7
3.905	-21.6
3.906	-18.1
3.907	-14.3
3.908	-10.5
3.909	-7
3.91	-4.1
3.911	-2
3.912	-0.7
3.913	-0.4
3.914	-1.1
3.915	-2.5
3.916	-4.6
3.917	-7
3.918	-9.6
3.919	-12
3.92	-13.9
3.921	-15.2
3.922	-15.7
3.923	-15.3
3.924	-13.9
3.925	-11.7
3.926	-8.7
3.927	-5.1
3.928	-1.1
3.929	2.9
3.93	6.8
3.931	10.3
3.932	13.4
3.933	15.8
3.934	17.6
3.935	18.7
3.936	19.2
3.937	19.3
3.938	19.2
3.939	19
3.94	18.9
3.941	19
3.942	19.7
3.943	20.8
3.944	22.5
3.945	24.6
3.946	27.2
3.947	30.1
3.948	33.2
3.949	36.1
3.95	38.8
3.951	41.1
3.952	42.8
3.953	44
3.954	44.4
3.955	44.2
3.956	43.5
3.957	42.4
3.958	41.1
3.959	39.8
3.96	38.7
3.961	38
3.962	37.9
3.963	38.5
3.964	39.8
3.965	42
3.966	44.9
3.967	48.4
3.968	52.5
3.969	56.9
3.97	61.5
3.971	66
3.972	70.3
3.973	74.3
3.974	77.8
3.975	80.7
3.976	83
3.977	84.7
3.978	86.1
3.979	86.9
3.98	87.5
3.981	87.9
3.982	88.3
3.983	88.8
3.984	89.4
3.985	90.3
3.986	91.5
3.987	93
3.988	94.9
3.989	97
3.99	99.3
3.991	101.8
3.992	104.4
3.993	107.3
3.994	110.1
3.995	112.9
3.996	115.8
3.997	118.7
3.998	121.7
3.999	124.7
4	127.8
4.001	130.9
4.002	134
4.003	137.3
4.004	140.6
4.005	143.8
4.006	147
4.007	150.1
4.008	153.1
4.009	155.9
4.01	158.6
4.011	161.1
4.012	163.4
4.013	165.8
4.014	168.1
4.015	170.4
4.016	172.8
4.017	175.4
4.018	178.4
4.019	181.5
4.02	184.9
4.021	188.6
4.022	192.5
4.023	196.6
4.024	200.6
4.025	204.6
4.026	208.3
4.027	211.7
4.028	214.7
4.029	217.1
4.03	218.9
4.031	220.2
4.032	220.9
4.033	221.1
4.034	221
4.035	220.6
4.036	220.2
4.037	219.9
4.038	219.7
4.039	219.8
4.04	220.3
4.041	221.2
4.042	222.4
4.043	223.8
4.044	225.4
4.045	226.9
4.046	228.2
4.047	229.2
4.048	229.5
4.049	229.1
4.05	227.8
4.051	225.7
4.052	222.6
4.053	218.6
4.054	213.8
4.055	208.4
4.056	202.6
4.057	196.5
4.058	190.2
4.059	184
4.06	178.1
4.061	172.6
4.062	167.4
4.063	162.5
4.064	158
4.065	153.8
4.066	149.6
4.067	145.4
4.068	140.8
4.069	136
4.07	130.6
4.071	124.7
4.072	118.1
4.073	110.7
4.074	102.9
4.075	94.6
4.076	86.1
4.077	77.3
4.078	68.4
4.079	59.9
4.08	51.7
4.081	44.1
4.082	36.9
4.083	30.4
4.084	24.6
4.085	19.4
4.086	14.7
4.087	10.5
4.088	6.5
4.089	2.8
4.09	-0.7
4.091	-4.2
4.092	-7.7
4.093	-11.4
4.094	-14.9
4.095	-18.4
4.096	-21.9
4.097	-25.3
4.098	-28.6
4.099	-31.4
4.1	-34
4.101	-36.3
4.102	-38.2
4.103	-40
4.104	-41.4
4.105	-42.8
4.106	-44.1
4.107	-45.6
4.108	-47.2
4.109	-49.1
4.11	-51.3
4.111	-53.9
4.112	-56.8
4.113	-60
4.114	-63.3
4.115	-66.6
4.116	-70
4.117	-73
4.118	-75.8
4.119	-78
4.12	-79.7
4.121	-80.7
4.122	-81.1
4.123	-81
4.124	-80.3
4.125	-79.1
4.126	-77.7
4.127	-76.2
4.128	-74.7
4.129	-73.3
4.13	-72.1
4.131	-71.3
4.132	-70.8
4.133	-70.7
4.134	-71
4.135	-71.5
4.136	-72.2
4.137	-73
4.138	-73.8
4.139	-74.5
4.14	-75
4.141	-75.2
4.142	-75.2
4.143	-75
4.144	-74.5
4.145	-73.9
4.146	-73.2
4.147	-72.5
4.148	-71.9
4.149	-71.5
4.15	-71.2
4.151	-71.2
4.152	-71.4
4.153	-71.7
4.154	-72.2
4.155	-72.7
4.156	-73.2
4.157	-73.7
4.158	-73.9
4.159	-73.9
4.16	-73.7
4.161	-73.2
4.162	-72.6
4.163	-71.8
4.164	-70.9
4.165	-70.1
4.166	-69.4
4.167	-68.9
4.168	-68.6
4.169	-68.7
4.17	-69.1
4.171	-69.7
4.172	-70.6
4.173	-71.6
4.174	-72.6
4.175	-73.5
4.176	-74.2
4.177	-74.5
4.178	-74.5
4.179	-73.9
4.18	-72.9
4.181	-71.5
4.182	-69.8
4.183	-67.8
4.184	-65.8
4.185	-64
4.186	-62.3
4.187	-61.2
4.188	-60.5
4.189	-60.5
4.19	-61.1
4.191	-62.3
4.192	-64.1
4.193	-66.2
4.194	-68.6
4.195	-71
4.196	-73.2
4.197	-75.1
4.198	-76.4
4.199	-77.1
4.2	-77.2
4.201	-76.5
4.202	-75.2
4.203	-73.3
4.204	-71.1
4.205	-68.8
4.206	-66.4
4.207	-64.4
4.208	-62.7
4.209	-61.7
4.21	-61.3
4.211	-61.6
4.212	-62.7
4.213	-64.3
4.214	-66.4
4.215	-68.7
4.216	-71.1
4.217	-73.3
4.218	-75.1
4.219	-76.4
4.22	-77
4.221	-76.9
4.222	-76.1
4.223	-74.5
4.224	-72.4
4.225	-69.9
4.226	-67.3
4.227	-64.6
4.228	-62.1
4.229	-60.1
4.23	-58.7
4.231	-57.9
4.232	-57.8
4.233	-58.4
4.234	-59.5
4.235	-61.1
4.236	-63
4.237	-65
4.238	-66.8
4.239	-68.3
4.24	-69.4
4.241	-69.9
4.242	-69.8
4.243	-69.1
4.244	-67.8
4.245	-66
4.246	-63.9
4.247	-61.7
4.248	-59.5
4.249	-57.6
4.25	-56
4.251	-55
4.252	-54.5
4.253	-54.6
4.254	-55.2
4.255	-56.4
4.256	-58
4.257	-59.8
4.258	-61.7
4.259	-63.5
4.26	-65.1
4.261	-66.4
4.262	-67.3
4.263	-67.7
4.264	-67.7
4.265	-67.2
4.266	-66.5
4.267	-65.4
4.268	-64.3
4.269	-63
4.27	-61.9
4.271	-60.8
4.272	-60
4.273	-59.4
4.274	-58.9
4.275	-58.7
4.276	-58.5
4.277	-58.4
4.278	-58.2
4.279	-57.9
4.28	-57.4
4.281	-56.7
4.282	-55.8
4.283	-54.8
4.284	-53.6
4.285	-52.3
4.286	-51
4.287	-49.9
4.288	-49.1
4.289	-48.5
4.29	-48.4
4.291	-48.7
4.292	-49.4
4.293	-50.5
4.294	-52
4.295	-53.7
4.296	-55.5
4.297	-57.3
4.298	-59
4.299	-60.4
4.3	-61.4
4.301	-62.1
4.302	-62.2
4.303	-61.8
4.304	-61
4.305	-59.8
4.306	-58.2
4.307	-56.5
4.308	-54.6
4.309	-52.7
4.31	-51
4.311	-49.4
4.312	-48.2
4.313	-47.2
4.314	-46.5
4.315	-46.2
4.316	-46.1
4.317	-46.2
4.318	-46.6
4.319	-47.1
4.32	-47.8
4.321	-48.5
4.322	-49.2
4.323	-50
4.324	-50.9
4.325	-51.7
4.326	-52.7
4.327	-53.7
4.328	-54.8
4.329	-56
4.33	-57.1
4.331	-58.3
4.332	-59.5
4.333	-60.5
4.334	-61.3
4.335	-61.9
4.336	-62.2
4.337	-62.2
4.338	-61.8
4.339	-61
4.34	-59.9
4.341	-58.5
4.342	-56.9
4.343	-55.3
4.344	-53.6
4.345	-52.1
4.346	-50.8
4.347	-49.9
4.348	-49.4
4.349	-49.3
4.35	-49.7
4.351	-50.4
4.352	-51.5
4.353	-52.8
4.354	-54.1
4.355	-55.4
4.356	-56.5
4.357	-57.4
4.358	-57.8
4.359	-57.8
4.36	-57.4
4.361	-56.5
4.362	-55.3
4.363	-53.9
4.364	-52.3
4.365	-50.7
4.366	-49.3
4.367	-48.2
4.368	-47.5
4.369	-47.2
4.37	-47.5
4.371	-48.3
4.372	-49.5
4.373	-51.1
4.374	-52.9
4.375	-54.9
4.376	-56.7
4.377	-58.3
4.378	-59.6
4.379	-60.5
4.38	-60.8
4.381	-60.7
4.382	-60.1
4.383	-59.1
4.384	-57.8
4.385	-56.4
4.386	-55
4.387	-53.6
4.388	-52.5
4.389	-51.8
4.39	-51.4
4.391	-51.5
4.392	-52
4.393	-52.9
4.394	-53.9
4.395	-55.2
4.396	-56.4
4.397	-57.5
4.398	-58.3
4.399	-58.8
4.4	-58.9
4.401	-58.6
4.402	-57.8
4.403	-56.7
4.404	-55.2
4.405	-53.6
4.406	-51.8
4.407	-50.1
4.408	-48.5
4.409	-47.1
4.41	-46.1
4.411	-45.4
4.412	-45
4.413	-44.9
4.414	-45
4.415	-45.4
4.416	-45.8
4.417	-46.3
4.418	-46.7
4.419	-47
4.42	-47.1
4.421	-47.1
4.422	-47
4.423	-46.8
4.424	-46.6
4.425	-46.4
4.426	-46.4
4.427	-46.4
4.428	-46.7
4.429	-47.1
4.43	-47.7
4.431	-48.5
4.432	-49.2
4.433	-50
4.434	-50.5
4.435	-50.8
4.436	-50.8
4.437	-50.4
4.438	-49.5
4.439	-48.1
4.44	-46.4
4.441	-44.3
4.442	-42.1
4.443	-39.8
4.444	-37.6
4.445	-35.7
4.446	-34.2
4.447	-33.3
4.448	-32.9
4.449	-33.3
4.45	-34.3
4.451	-35.9
4.452	-37.9
4.453	-40.2
4.454	-42.7
4.455	-45.1
4.456	-47.2
4.457	-48.9
4.458	-50.1
4.459	-50.7
4.46	-50.6
4.461	-49.9
4.462	-48.8
4.463	-47.2
4.464	-45.5
4.465	-43.7
4.466	-42.1
4.467	-40.8
4.468	-40
4.469	-39.8
4.47	-40.1
4.471	-41
4.472	-42.3
4.473	-44
4.474	-45.8
4.475	-47.6
4.476	-49.1
4.477	-50.3
4.478	-50.8
4.479	-50.7
4.48	-49.8
4.481	-48.2
4.482	-46
4.483	-43.1
4.484	-39.9
4.485	-36.5
4.486	-33.2
4.487	-30
4.488	-27.2
4.489	-24.9
4.49	-23.3
4.491	-22.3
4.492	-22
4.493	-22.2
4.494	-22.9
4.495	-23.9
4.496	-25
4.497	-26
4.498	-26.8
4.499	-27.3
4.5	-27.4
4.501	-27.1
4.502	-26.3
4.503	-25
4.504	-23.4
4.505	-21.6
4.506	-19.7
4.507	-17.8
4.508	-15.9
4.509	-14.2
4.51	-12.6
4.511	-11.2
4.512	-9.9
4.513	-8.5
4.514	-7
4.515	-5.2
4.516	-3
4.517	-0.3
4.518	3
4.519	6.9
4.52	11.4
4.521	16.5
4.522	21.9
4.523	27.6
4.524	33.3
4.525	38.7
4.526	43.6
4.527	47.9
4.528	51.4
4.529	53.8
4.53	55.1
4.531	55.4
4.532	54.7
4.533	53.1
4.534	50.8
4.535	48.1
4.536	45.2
4.537	42.3
4.538	39.7
4.539	37.5
4.54	35.9
4.541	35
4.542	34.8
4.543	35.3
4.544	36.3
4.545	37.7
4.546	39.3
4.547	41
4.548	42.4
4.549	43.4
4.55	43.8
4.551	43.6
4.552	42.6
4.553	40.8
4.554	38.1
4.555	34.8
4.556	30.8
4.557	26.3
4.558	21.4
4.559	16.2
4.56	10.9
4.561	5.6
4.562	0.4
4.563	-4.8
4.564	-9.7
4.565	-14.5
4.566	-19
4.567	-23.3
4.568	-27.4
4.569	-31.2
4.57	-34.8
4.571	-38.1
4.572	-41.1
4.573	-43.9
4.574	-46.3
4.575	-48.3
4.576	-49.9
4.577	-51.2
4.578	-52.2
4.579	-52.8
4.58	-53.1
4.581	-53.2
4.582	-53.2
4.583	-53.2
4.584	-53.2
4.585	-53.3
4.586	-53.6
4.587	-54
4.588	-54.7
4.589	-55.5
4.59	-56.4
4.591	-57.4
4.592	-58.4
4.593	-59.3
4.594	-60
4.595	-60.5
4.596	-60.7
4.597	-60.7
4.598	-60.5
4.599	-60
4.6	-59.4
4.601	-58.8
4.602	-58.2
4.603	-57.8
4.604	-57.6
4.605	-57.6
4.606	-58
4.607	-58.5
4.608	-59.3
4.609	-60.2
4.61	-61.2
4.611	-62
4.612	-62.7
4.613	-63.1
4.614	-63.1
4.615	-62.9
4.616	-62.2
4.617	-61.3
4.618	-60.3
4.619	-59.2
4.62	-58.2
4.621	-57.5
4.622	-57.3
4.623	-57.6
4.624	-58.4
4.625	-59.9
4.626	-61.8
4.627	-64.1
4.628	-66.7
4.629	-69.3
4.63	-71.6
4.631	-73.6
4.632	-74.9
4.633	-75.7
4.634	-75.9
4.635	-75.6
4.636	-75
4.637	-74.4
4.638	-74
4.639	-74.6
4.64	-76.5
4.641	-80.3
4.642	-86.2
4.643	-93.8
4.644	-103.9
4.645	-116.1
4.646	-130.2
4.647	-145.3
4.648	-159.8
4.649	-173.4
4.65	-184.9
4.651	-193.1
4.652	-196.5
4.653	-192.9
4.654	-182.2
4.655	-163.4
4.656	-136.2
4.657	-100.1
4.658	-54.5
4.659	-0.9
4.66	60
4.661	126.8
4.662	198.3
4.663	272.8
4.664	347.9
4.665	422
4.666	493.4
4.667	560.2
4.668	620.8
4.669	673.6
4.67	718
4.671	753.9
4.672	780.6
4.673	797.6
4.674	805
4.675	804
4.676	795.4
4.677	779.8
4.678	757.5
4.679	729
4.68	696
4.681	659.3
4.682	619.5
4.683	576.7
4.684	531.5
4.685	485
4.686	437.7
4.687	390.1
4.688	342.3
4.689	295.4
4.69	249.9
4.691	206.3
4.692	165.4
4.693	127.4
4.694	93.7
4.695	64.3
4.696	39.4
4.697	19.2
4.698	3.6
4.699	-6.6
4.7	-12.5
4.701	-14.7
4.702	-13.8
4.703	-10.8
4.704	-5.5
4.705	0.5
4.706	6.2
4.707	11.1
4.708	14.4
4.709	16.3
4.71	16.2
4.711	13.9
4.712	9.6
4.713	3.4
4.714	-3.8
4.715	-11.7
4.716	-19.9
4.717	-27.8
4.718	-35
4.719	-41
4.72	-45.5
4.721	-48.4
4.722	-49.9
4.723	-49.9
4.724	-48.8
4.725	-46.8
4.726	-44.5
4.727	-42.1
4.728	-40.1
4.729	-38.6
4.73	-38
4.731	-38.4
4.732	-39.8
4.733	-42
4.734	-44.8
4.735	-48.1
4.736	-51.4
4.737	-54.5
4.738	-57
4.739	-58.7
4.74	-59.4
4.741	-59.1
4.742	-57.8
4.743	-55.5
4.744	-52.5
4.745	-48.9
4.746	-45.2
4.747	-41.5
4.748	-38.2
4.749	-35.5
4.75	-33.6
4.751	-32.7
4.752	-32.6
4.753	-33.5
4.754	-35
4.755	-37.1
4.756	-39.5
4.757	-42
4.758	-44.2
4.759	-46
4.76	-47.2
4.761	-47.7
4.762	-47.4
4.763	-46.4
4.764	-44.8
4.765	-42.7
4.766	-40.3
4.767	-37.9
4.768	-35.5
4.769	-33.5
4.77	-31.9
4.771	-30.9
4.772	-30.5
4.773	-30.7
4.774	-31.4
4.775	-32.4
4.776	-33.8
4.777	-35.2
4.778	-36.5
4.779	-37.6
4.78	-38.2
4.781	-38.4
4.782	-38.1
4.783	-37.2
4.784	-35.8
4.785	-34
4.786	-31.8
4.787	-29.3
4.788	-26.7
4.789	-24.1
4.79	-21.5
4.791	-19.1
4.792	-16.9
4.793	-14.8
4.794	-13
4.795	-11.3
4.796	-9.8
4.797	-8.4
4.798	-7
4.799	-5.6
4.8	-4.3
4.801	-3
4.802	-1.7
4.803	-0.5
4.804	0.6
4.805	1.6
4.806	2.3
4.807	2.9
4.808	3.2
4.809	3.3
4.81	3.1
4.811	2.9
4.812	2.5
4.813	2.1
4.814	1.9
4.815	1.7
4.816	1.8
4.817	2.1
4.818	2.8
4.819	3.7
4.82	4.9
4.821	6.2
4.822	7.8
4.823	9.4
4.824	11
4.825	12.5
4.826	13.8
4.827	15
4.828	16.1
4.829	17
4.83	17.9
4.831	18.7
4.832	19.7
4.833	20.9
4.834	22.4
4.835	24.3
4.836	26.7
4.837	29.5
4.838	32.8
4.839	36.4
4.84	40.3
4.841	44.3
4.842	48.3
4.843	52.1
4.844	55.5
4.845	58.5
4.846	60.8
4.847	62.5
4.848	63.5
4.849	63.9
4.85	63.8
4.851	63.2
4.852	62.5
4.853	61.8
4.854	61.2
4.855	61
4.856	61.3
4.857	62.2
4.858	63.9
4.859	66.2
4.86	69.1
4.861	72.6
4.862	76.5
4.863	80.6
4.864	84.8
4.865	88.9
4.866	92.7
4.867	96.1
4.868	99.1
4.869	101.7
4.87	103.7
4.871	105.5
4.872	107
4.873	108.5
4.874	110
4.875	111.6
4.876	113.6
4.877	115.9
4.878	118.7
4.879	121.9
4.88	125.3
4.881	128.9
4.882	132.6
4.883	136.2
4.884	139.5
4.885	142.4
4.886	144.7
4.887	146.5
4.888	147.7
4.889	148.4
4.89	148.6
4.891	148.7
4.892	148.8
4.893	149.1
4.894	149.9
4.895	151.3
4.896	153.6
4.897	156.8
4.898	161
4.899	166.1
4.9	172
4.901	178.4
4.902	185.2
4.903	192
4.904	198.5
4.905	204.4
4.906	209.5
4.907	213.6
4.908	216.5
4.909	218.1
4.91	218.6
4.911	218
4.912	216.7
4.913	214.8
4.914	212.6
4.915	210.5
4.916	208.7
4.917	207.6
4.918	207.2
4.919	207.7
4.92	209.1
4.921	211.4
4.922	214.4
4.923	217.8
4.924	221.4
4.925	224.9
4.926	228.1
4.927	230.7
4.928	232.3
4.929	233
4.93	232.5
4.931	231
4.932	228.5
4.933	224.9
4.934	220.6
4.935	215.8
4.936	210.7
4.937	205.5
4.938	200.2
4.939	195.1
4.94	190.2
4.941	185.5
4.942	180.9
4.943	176.3
4.944	171.6
4.945	166.6
4.946	161.3
4.947	155.3
4.948	148.6
4.949	141.4
4.95	133.4
4.951	124.9
4.952	116
4.953	106.7
4.954	97.5
4.955	88.5
4.956	80
4.957	72.1
4.958	64.8
4.959	58.5
4.96	53.1
4.961	48.5
4.962	44.6
4.963	41.1
4.964	38.2
4.965	35.3
4.966	32.3
4.967	29
4.968	25.1
4.969	20.8
4.97	15.8
4.971	10.3
4.972	4.3
4.973	-2.1
4.974	-8.6
4.975	-14.9
4.976	-21
4.977	-26.6
4.978	-31.6
4.979	-35.7
4.98	-39
4.981	-41.5
4.982	-43.3
4.983	-44.6
4.984	-45.3
4.985	-45.9
4.986	-46.4
4.987	-47.2
4.988	-48.3
4.989	-49.7
4.99	-51.7
4.991	-54
4.992	-56.8
4.993	-59.9
4.994	-62.9
4.995	-65.8
4.996	-68.5
4.997	-70.7
4.998	-72.3
4.999	-73.2
5	-73.3
5.001	-72.8
5.002	-71.8
5.003	-70.4
5.004	-68.7
5.005	-67
5.006	-65.6
5.007	-64.7
5.008	-64.3
5.009	-64.7
5.01	-65.8
5.011	-67.7
5.012	-70.3
5.013	-73.3
5.014	-76.7
5.015	-80.1
5.016	-83.4
5.017	-86.3
5.018	-88.6
5.019	-90.2
5.02	-90.9
5.021	-90.7
5.022	-89.8
5.023	-88.1
5.024	-85.9
5.025	-83.3
5.026	-80.6
5.027	-78.1
5.028	-75.8
5.029	-74.1
5.03	-72.9
5.031	-72.5
5.032	-72.7
5.033	-73.5
5.034	-74.9
5.035	-76.6
5.036	-78.4
5.037	-80.3
5.038	-81.9
5.039	-83.2
5.04	-83.9
5.041	-84.1
5.042	-83.8
5.043	-82.9
5.044	-81.5
5.045	-79.8
5.046	-77.9
5.047	-75.9
5.048	-74
5.049	-72.4
5.05	-71.1
5.051	-70.2
5.052	-69.7
5.053	-69.6
5.054	-69.8
5.055	-70.2
5.056	-70.7
5.057	-71.2
5.058	-71.5
5.059	-71.5
5.06	-71.2
5.061	-70.6
5.062	-69.6
5.063	-68.4
5.064	-66.9
5.065	-65.3
5.066	-63.7
5.067	-62.4
5.068	-61.3
5.069	-60.6
5.07	-60.5
5.071	-60.8
5.072	-61.7
5.073	-63
5.074	-64.8
5.075	-66.8
5.076	-68.9
5.077	-71
5.078	-72.9
5.079	-74.4
5.08	-75.5
5.081	-76.2
5.082	-76.2
5.083	-75.8
5.084	-74.8
5.085	-73.5
5.086	-71.9
5.087	-70.2
5.088	-68.4
5.089	-66.8
5.09	-65.4
5.091	-64.5
5.092	-63.9
5.093	-63.8
5.094	-64.1
5.095	-64.9
5.096	-65.9
5.097	-67.2
5.098	-68.6
5.099	-70
5.1	-71.3
5.101	-72.3
5.102	-72.9
5.103	-73.2
5.104	-73
5.105	-72.4
5.106	-71.3
5.107	-69.8
5.108	-67.9
5.109	-65.7
5.11	-63.4
5.111	-60.9
5.112	-58.4
5.113	-55.9
5.114	-53.7
5.115	-51.6
5.116	-49.7
5.117	-48.2
5.118	-47
5.119	-46.2
5.12	-45.7
5.121	-45.6
5.122	-45.9
5.123	-46.5
5.124	-47.4
5.125	-48.5
5.126	-49.9
5.127	-51.4
5.128	-53
5.129	-54.6
5.13	-56.2
5.131	-57.7
5.132	-59.1
5.133	-60.2
5.134	-61.1
5.135	-61.6
5.136	-61.9
5.137	-61.8
5.138	-61.4
5.139	-60.8
5.14	-59.9
5.141	-58.8
5.142	-57.5
5.143	-56.2
5.144	-54.9
5.145	-53.6
5.146	-52.3
5.147	-51.2
5.148	-50.2
5.149	-49.4
5.15	-48.8
5.151	-48.3
5.152	-47.9
5.153	-47.7
5.154	-47.6
5.155	-47.7
5.156	-47.8
5.157	-48
5.158	-48.3
5.159	-48.7
5.16	-49.2
5.161	-49.8
5.162	-50.6
5.163	-51.4
5.164	-52.4
5.165	-53.4
5.166	-54.5
5.167	-55.6
5.168	-56.6
5.169	-57.5
5.17	-58.2
5.171	-58.6
5.172	-58.8
5.173	-58.7
5.174	-58.2
5.175	-57.4
5.176	-56.4
5.177	-55.1
5.178	-53.6
5.179	-52
5.18	-50.5
5.181	-49
5.182	-47.8
5.183	-46.7
5.184	-46
5.185	-45.6
5.186	-45.5
5.187	-45.7
5.188	-46.2
5.189	-46.8
5.19	-47.6
5.191	-48.3
5.192	-49
5.193	-49.5
5.194	-49.9
5.195	-50
5.196	-49.9
5.197	-49.5
5.198	-49.1
5.199	-48.6
5.2	-48.1
5.201	-47.7
5.202	-47.5
5.203	-47.6
5.204	-48
5.205	-48.7
5.206	-49.9
5.207	-51.3
5.208	-53
5.209	-54.7
5.21	-56.6
5.211	-58.3
5.212	-59.8
5.213	-60.9
5.214	-61.6
5.215	-61.8
5.216	-61.6
5.217	-60.8
5.218	-59.5
5.219	-57.9
5.22	-56.1
5.221	-54.1
5.222	-52.1
5.223	-50.3
5.224	-48.7
5.225	-47.4
5.226	-46.5
5.227	-46
5.228	-45.9
5.229	-46
5.23	-46.4
5.231	-46.9
5.232	-47.3
5.233	-47.6
5.234	-47.8
5.235	-47.6
5.236	-47.2
5.237	-46.4
5.238	-45.3
5.239	-44.1
5.24	-42.7
5.241	-41.3
5.242	-40.1
5.243	-39.1
5.244	-38.5
5.245	-38.4
5.246	-38.7
5.247	-39.5
5.248	-40.7
5.249	-42.4
5.25	-44.2
5.251	-46.2
5.252	-48.2
5.253	-50
5.254	-51.5
5.255	-52.6
5.256	-53.1
5.257	-53.2
5.258	-52.7
5.259	-51.8
5.26	-50.4
5.261	-48.8
5.262	-47.1
5.263	-45.4
5.264	-43.8
5.265	-42.5
5.266	-41.5
5.267	-40.9
5.268	-40.8
5.269	-41
5.27	-41.6
5.271	-42.3
5.272	-43.3
5.273	-44.2
5.274	-44.9
5.275	-45.5
5.276	-45.8
5.277	-45.8
5.278	-45.5
5.279	-44.8
5.28	-43.9
5.281	-42.9
5.282	-41.8
5.283	-40.8
5.284	-40
5.285	-39.4
5.286	-39.1
5.287	-39.2
5.288	-39.6
5.289	-40.3
5.29	-41.2
5.291	-42.2
5.292	-43.2
5.293	-44.2
5.294	-44.9
5.295	-45.3
5.296	-45.4
5.297	-45.1
5.298	-44.6
5.299	-43.8
5.3	-42.9
5.301	-41.9
5.302	-41.1
5.303	-40.6
5.304	-40.4
5.305	-40.6
5.306	-41.4
5.307	-42.7
5.308	-44.4
5.309	-46.4
5.31	-48.7
5.311	-51
5.312	-53.2
5.313	-55.1
5.314	-56.5
5.315	-57.2
5.316	-57.3
5.317	-56.6
5.318	-55.1
5.319	-52.9
5.32	-50.3
5.321	-47.2
5.322	-44
5.323	-40.9
5.324	-38
5.325	-35.6
5.326	-33.9
5.327	-32.8
5.328	-32.5
5.329	-33
5.33	-34.1
5.331	-35.7
5.332	-37.8
5.333	-39.9
5.334	-42
5.335	-43.9
5.336	-45.4
5.337	-46.4
5.338	-46.7
5.339	-46.4
5.34	-45.6
5.341	-44.2
5.342	-42.6
5.343	-40.7
5.344	-38.8
5.345	-37
5.346	-35.6
5.347	-34.7
5.348	-34.2
5.349	-34.2
5.35	-34.7
5.351	-35.6
5.352	-36.8
5.353	-38.1
5.354	-39.3
5.355	-40.3
5.356	-41
5.357	-41.1
5.358	-40.7
5.359	-39.8
5.36	-38.3
5.361	-36.3
5.362	-34
5.363	-31.5
5.364	-29
5.365	-26.7
5.366	-24.7
5.367	-23.1
5.368	-22
5.369	-21.5
5.37	-21.4
5.371	-21.9
5.372	-22.7
5.373	-23.6
5.374	-24.5
5.375	-25.4
5.376	-25.9
5.377	-26
5.378	-25.4
5.379	-24.3
5.38	-22.6
5.381	-20.3
5.382	-17.4
5.383	-14.1
5.384	-10.5
5.385	-6.7
5.386	-3
5.387	0.7
5.388	4.3
5.389	7.6
5.39	10.6
5.391	13.4
5.392	16
5.393	18.5
5.394	21
5.395	23.4
5.396	25.9
5.397	28.5
5.398	31.2
5.399	34
5.4	36.9
5.401	39.7
5.402	42.4
5.403	44.9
5.404	47
5.405	48.6
5.406	49.7
5.407	50.3
5.408	50.2
5.409	49.5
5.41	48.4
5.411	46.9
5.412	45.1
5.413	43.2
5.414	41.3
5.415	39.6
5.416	38.2
5.417	37.2
5.418	36.6
5.419	36.3
5.42	36.5
5.421	36.9
5.422	37.4
5.423	37.8
5.424	38
5.425	37.8
5.426	37.2
5.427	35.8
5.428	33.7
5.429	30.8
5.43	27.2
5.431	23
5.432	18.1
5.433	12.8
5.434	7.3
5.435	1.8
5.436	-3.7
5.437	-9
5.438	-13.9
5.439	-18.2
5.44	-22
5.441	-25.3
5.442	-28.1
5.443	-30.4
5.444	-32.3
5.445	-33.8
5.446	-35.2
5.447	-36.4
5.448	-37.7
5.449	-38.9
5.45	-40.2
5.451	-41.7
5.452	-43.2
5.453	-44.7
5.454	-46.3
5.455	-47.8
5.456	-49.2
5.457	-50.5
5.458	-51.6
5.459	-52.5
5.46	-53.2
5.461	-53.7
5.462	-54
5.463	-54.3
5.464	-54.5
5.465	-54.6
5.466	-54.8
5.467	-55.2
5.468	-55.6
5.469	-56.3
5.47	-57.2
5.471	-58.2
5.472	-59.5
5.473	-60.9
5.474	-62.4
5.475	-63.9
5.476	-65.4
5.477	-66.8
5.478	-68
5.479	-69
5.48	-69.7
5.481	-70.1
5.482	-70.1
5.483	-69.8
5.484	-69.1
5.485	-68.1
5.486	-66.8
5.487	-65.3
5.488	-63.7
5.489	-61.9
5.49	-60.2
5.491	-58.6
5.492	-57.2
5.493	-56.1
5.494	-55.3
5.495	-54.9
5.496	-54.8
5.497	-55
5.498	-55.5
5.499	-56.3
5.5	-57
5.501	-57.6
5.502	-58.1
5.503	-58.3
5.504	-58.2
5.505	-57.6
5.506	-56.6
5.507	-55.3
5.508	-53.8
5.509	-52.5
5.51	-51.5
5.511	-51.3
5.512	-52.1
5.513	-54.3
5.514	-58.3
5.515	-64.6
5.516	-73.2
5.517	-84.1
5.518	-96.7
5.519	-111.2
5.52	-127.2
5.521	-143.9
5.522	-160.3
5.523	-174.7
5.524	-186.5
5.525	-194.7
5.526	-198.1
5.527	-195.4
5.528	-184.8
5.529	-166.4
5.53	-139.7
5.531	-104.6
5.532	-61.1
5.533	-9
5.534	50.1
5.535	115.1
5.536	184.6
5.537	257.2
5.538	331.2
5.539	404.4
5.54	475.2
5.541	542.1
5.542	603.7
5.543	658.3
5.544	704.6
5.545	742.4
5.546	771.6
5.547	791.9
5.548	802.8
5.549	804.5
5.55	798.2
5.551	784.9
5.552	765.1
5.553	738.9
5.554	707.1
5.555	671.1
5.556	631.8
5.557	589.8
5.558	545.1
5.559	498.5
5.56	450.8
5.561	402.8
5.562	354.9
5.563	307.3
5.564	261.1
5.565	216.8
5.566	175
5.567	136.3
5.568	101.1
5.569	70.7
5.57	44.8
5.571	23.7
5.572	7.5
5.573	-4
5.574	-10.2
5.575	-12.2
5.576	-10.8
5.577	-6.6
5.578	-0.7
5.579	7
5.58	14.9
5.581	22
5.582	27.8
5.583	31.5
5.584	33.3
5.585	32.6
5.586	29.3
5.587	23.7
5.588	16
5.589	7
5.59	-2.9
5.591	-13.1
5.592	-23
5.593	-32.1
5.594	-39.9
5.595	-46.1
5.596	-50.4
5.597	-53
5.598	-53.8
5.599	-53.2
5.6	-51.4
5.601	-48.8
5.602	-45.9
5.603	-43.1
5.604	-40.7
5.605	-38.9
5.606	-38.1
5.607	-38.1
5.608	-39.2
5.609	-40.9
5.61	-43.2
5.611	-45.9
5.612	-48.7
5.613	-51.2
5.614	-53.3
5.615	-54.7
5.616	-55.4
5.617	-55.2
5.618	-54.3
5.619	-52.8
5.62	-50.7
5.621	-48.4
5.622	-46
5.623	-43.7
5.624	-41.7
5.625	-40.2
5.626	-39.2
5.627	-38.8
5.628	-38.9
5.629	-39.4
5.63	-40.2
5.631	-41.1
5.632	-42
5.633	-42.6
5.634	-42.9
5.635	-42.8
5.636	-42.3
5.637	-41.4
5.638	-40
5.639	-38.4
5.64	-36.7
5.641	-34.9
5.642	-33.3
5.643	-31.9
5.644	-30.8
5.645	-30.1
5.646	-29.7
5.647	-29.6
5.648	-29.6
5.649	-29.6
5.65	-29.6
5.651	-29.3
5.652	-28.6
5.653	-27.4
5.654	-25.7
5.655	-23.6
5.656	-21.1
5.657	-18.2
5.658	-15.3
5.659	-12.4
5.66	-9.9
5.661	-7.9
5.662	-6.5
5.663	-5.9
5.664	-6.2
5.665	-7.2
5.666	-9.1
5.667	-11.4
5.668	-14.1
5.669	-16.8
5.67	-19.4
5.671	-21.4
5.672	-22.6
5.673	-22.8
5.674	-21.9
5.675	-19.8
5.676	-16.7
5.677	-12.4
5.678	-7.4
5.679	-1.8
5.68	3.9
5.681	9.5
5.682	14.7
5.683	19.1
5.684	22.5
5.685	24.7
5.686	25.8
5.687	25.6
5.688	24.4
5.689	22.2
5.69	19.5
5.691	16.5
5.692	13.5
5.693	10.9
5.694	8.9
5.695	7.8
5.696	7.6
5.697	8.6
5.698	10.7
5.699	13.7
5.7	17.5
5.701	21.9
5.702	26.5
5.703	31.2
5.704	35.6
5.705	39.4
5.706	42.6
5.707	45
5.708	46.6
5.709	47.3
5.71	47.3
5.711	46.8
5.712	45.9
5.713	45
5.714	44.1
5.715	43.5
5.716	43.3
5.717	43.7
5.718	44.9
5.719	46.6
5.72	48.9
5.721	51.7
5.722	54.8
5.723	58.2
5.724	61.6
5.725	64.9
5.726	67.8
5.727	70.4
5.728	72.6
5.729	74.4
5.73	75.7
5.731	76.7
5.732	77.6
5.733	78.4
5.734	79.2
5.735	80.1
5.736	81.4
5.737	83
5.738	85.1
5.739	87.5
5.74	90.3
5.741	93.3
5.742	96.6
5.743	100.1
5.744	103.5
5.745	106.9
5.746	110
5.747	113
5.748	115.8
5.749	118.3
5.75	120.5
5.751	122.7
5.752	124.8
5.753	127
5.754	129.3
5.755	131.7
5.756	134.4
5.757	137.3
5.758	140.6
5.759	144
5.76	147.6
5.761	151.2
5.762	154.9
5.763	158.5
5.764	161.8
5.765	164.9
5.766	167.7
5.767	170.2
5.768	172.4
5.769	174.3
5.77	176.1
5.771	177.7
5.772	179.3
5.773	181.1
5.774	183
5.775	185.2
5.776	187.6
5.777	190.4
5.778	193.5
5.779	196.8
5.78	200.2
5.781	203.7
5.782	207.2
5.783	210.5
5.784	213.5
5.785	216.2
5.786	218.6
5.787	220.5
5.788	222.1
5.789	223.2
5.79	224.1
5.791	224.8
5.792	225.4
5.793	226
5.794	226.6
5.795	227.3
5.796	228.1
5.797	229.1
5.798	230.1
5.799	231.1
5.8	232
5.801	232.8
5.802	233.3
5.803	233.2
5.804	232.6
5.805	231.4
5.806	229.5
5.807	226.9
5.808	223.6
5.809	219.6
5.81	215.1
5.811	210.1
5.812	204.8
5.813	199.1
5.814	193.3
5.815	187.5
5.816	181.8
5.817	176.1
5.818	170.3
5.819	164.6
5.82	159
5.821	153.3
5.822	147.5
5.823	141.4
5.824	135.1
5.825	128.6
5.826	121.8
5.827	114.7
5.828	107.2
5.829	99.7
5.83	92.1
5.831	84.6
5.832	77.1
5.833	69.6
5.834	62.6
5.835	56
5.836	49.7
5.837	43.7
5.838	38
5.839	32.7
5.84	27.7
5.841	22.9
5.842	18.2
5.843	13.4
5.844	8.8
5.845	4.2
5.846	-0.5
5.847	-5.1
5.848	-9.8
5.849	-14.2
5.85	-18.4
5.851	-22.4
5.852	-26
5.853	-29.3
5.854	-32
5.855	-34.3
5.856	-36.3
5.857	-37.9
5.858	-39.3
5.859	-40.6
5.86	-41.8
5.861	-43.1
5.862	-44.6
5.863	-46.4
5.864	-48.4
5.865	-50.8
5.866	-53.4
5.867	-56.3
5.868	-59.2
5.869	-62.1
5.87	-64.7
5.871	-67.1
5.872	-69
5.873	-70.4
5.874	-71.2
5.875	-71.3
5.876	-70.9
5.877	-70.1
5.878	-68.9
5.879	-67.4
5.88	-66
5.881	-64.8
5.882	-63.9
5.883	-63.5
5.884	-63.7
5.885	-64.4
5.886	-65.8
5.887	-67.8
5.888	-70.1
5.889	-72.7
5.89	-75.4
5.891	-78
5.892	-80.3
5.893	-82.1
5.894	-83.4
5.895	-83.9
5.896	-83.8
5.897	-83.1
5.898	-81.7
5.899	-80
5.9	-78
5.901	-75.9
5.902	-74
5.903	-72.4
5.904	-71.2
5.905	-70.5
5.906	-70.4
5.907	-70.7
5.908	-71.6
5.909	-72.8
5.91	-74.1
5.911	-75.4
5.912	-76.6
5.913	-77.4
5.914	-77.8
5.915	-77.6
5.916	-76.8
5.917	-75.6
5.918	-73.9
5.919	-72
5.92	-70
5.921	-68
5.922	-66.4
5.923	-65.3
5.924	-64.8
5.925	-65.1
5.926	-66.2
5.927	-67.9
5.928	-70.4
5.929	-73.3
5.93	-76.5
5.931	-79.7
5.932	-82.7
5.933	-85.3
5.934	-87.3
5.935	-88.4
5.936	-88.7
5.937	-88
5.938	-86.3
5.939	-84
5.94	-81
5.941	-77.6
5.942	-74
5.943	-70.6
5.944	-67.5
5.945	-64.9
5.946	-63
5.947	-61.8
5.948	-61.5
5.949	-62
5.95	-63.1
5.951	-64.7
5.952	-66.7
5.953	-68.8
5.954	-70.8
5.955	-72.5
5.956	-73.8
5.957	-74.5
5.958	-74.7
5.959	-74.2
5.96	-73.2
5.961	-71.7
5.962	-69.9
5.963	-68
5.964	-66
5.965	-64.2
5.966	-62.7
5.967	-61.6
5.968	-60.9
5.969	-60.6
5.97	-60.8
5.971	-61.4
5.972	-62.3
5.973	-63.3
5.974	-64.4
5.975	-65.4
5.976	-66.2
5.977	-66.8
5.978	-67.2
5.979	-67.2
5.98	-67
5.981	-66.5
5.982	-65.9
5.983	-65.2
5.984	-64.5
5.985	-63.9
5.986	-63.4
5.987	-63.1
5.988	-63
5.989	-63.1
5.99	-63.3
5.991	-63.6
5.992	-63.9
5.993	-64.1
5.994	-64.1
5.995	-64
5.996	-63.5
5.997	-62.9
5.998	-61.9
5.999	-60.7
6	-59.3
6.001	-57.7
6.002	-56.2
6.003	-54.7
6.004	-53.3
6.005	-52.2
6.006	-51.3
6.007	-50.7
6.008	-50.4
6.009	-50.4
6.01	-50.8
6.011	-51.3
6.012	-52
6.013	-52.9
6.014	-53.8
6.015	-54.7
6.016	-55.6
6.017	-56.5
6.018	-57.3
6.019	-58
6.02	-58.7
6.021	-59.3
6.022	-60
6.023	-60.6
6.024	-61.1
6.025	-61.7
6.026	-62.1
6.027	-62.4
6.028	-62.5
6.029	-62.4
6.03	-62
6.031	-61.2
6.032	-60.1
6.033	-58.6
6.034	-56.8
6.035	-54.8
6.036	-52.6
6.037	-50.3
6.038	-48
6.039	-46
6.04	-44.3
6.041	-43.2
6.042	-42.5
6.043	-42.5
6.044	-43.2
6.045	-44.6
6.046	-46.5
6.047	-48.9
6.048	-51.7
6.049	-54.6
6.05	-57.5
6.051	-60.2
6.052	-62.5
6.053	-64.3
6.054	-65.5
6.055	-66
6.056	-65.8
6.057	-64.9
6.058	-63.5
6.059	-61.5
6.06	-59.3
6.061	-57
6.062	-54.6
6.063	-52.4
6.064	-50.4
6.065	-48.8
6.066	-47.6
6.067	-46.8
6.068	-46.5
6.069	-46.4
6.07	-46.6
6.071	-47
6.072	-47.3
6.073	-47.7
6.074	-47.8
6.075	-47.8
6.076	-47.6
6.077	-47.2
6.078	-46.6
6.079	-46
6.08	-45.3
6.081	-44.7
6.082	-44.3
6.083	-44.1
6.084	-44.3
6.085	-44.8
6.086	-45.7
6.087	-46.9
6.088	-48.3
6.089	-50
6.09	-51.6
6.091	-53.3
6.092	-54.8
6.093	-56.1
6.094	-57
6.095	-57.5
6.096	-57.7
6.097	-57.5
6.098	-56.9
6.099	-56.1
6.1	-55
6.101	-53.8
6.102	-52.6
6.103	-51.4
6.104	-50.3
6.105	-49.4
6.106	-48.6
6.107	-48
6.108	-47.6
6.109	-47.2
6.11	-46.9
6.111	-46.6
6.112	-46.3
6.113	-45.9
6.114	-45.4
6.115	-44.9
6.116	-44.3
6.117	-43.7
6.118	-43.3
6.119	-43
6.12	-42.9
6.121	-43
6.122	-43.6
6.123	-44.4
6.124	-45.7
6.125	-47.2
6.126	-49
6.127	-51
6.128	-53
6.129	-54.9
6.13	-56.7
6.131	-58.3
6.132	-59.4
6.133	-60.2
6.134	-60.4
6.135	-60.3
6.136	-59.7
6.137	-58.8
6.138	-57.6
6.139	-56.2
6.14	-54.7
6.141	-53.3
6.142	-52
6.143	-50.9
6.144	-49.9
6.145	-49.2
6.146	-48.6
6.147	-48.2
6.148	-47.8
6.149	-47.4
6.15	-46.9
6.151	-46.3
6.152	-45.5
6.153	-44.6
6.154	-43.5
6.155	-42.4
6.156	-41.3
6.157	-40.2
6.158	-39.4
6.159	-38.9
6.16	-38.9
6.161	-39.3
6.162	-40.3
6.163	-41.8
6.164	-43.9
6.165	-46.3
6.166	-49
6.167	-51.8
6.168	-54.4
6.169	-56.8
6.17	-58.8
6.171	-60.1
6.172	-60.6
6.173	-60.4
6.174	-59.3
6.175	-57.5
6.176	-55
6.177	-52
6.178	-48.7
6.179	-45.4
6.18	-42.1
6.181	-39.2
6.182	-36.8
6.183	-35
6.184	-34
6.185	-33.7
6.186	-34.2
6.187	-35.2
6.188	-36.7
6.189	-38.6
6.19	-40.4
6.191	-42.2
6.192	-43.7
6.193	-44.7
6.194	-45.2
6.195	-45
6.196	-44.2
6.197	-42.9
6.198	-41
6.199	-38.8
6.2	-36.3
6.201	-33.9
6.202	-31.6
6.203	-29.6
6.204	-28
6.205	-26.9
6.206	-26.2
6.207	-26.1
6.208	-26.3
6.209	-26.9
6.21	-27.7
6.211	-28.6
6.212	-29.4
6.213	-29.9
6.214	-30.2
6.215	-30.1
6.216	-29.7
6.217	-28.8
6.218	-27.6
6.219	-26.1
6.22	-24.4
6.221	-22.6
6.222	-20.8
6.223	-19
6.224	-17.3
6.225	-15.8
6.226	-14.4
6.227	-13
6.228	-11.5
6.229	-10
6.23	-8.3
6.231	-6.3
6.232	-3.9
6.233	-1
6.234	2.3
6.235	6.1
6.236	10.3
6.237	14.9
6.238	19.6
6.239	24.4
6.24	29
6.241	33.3
6.242	37.2
6.243	40.5
6.244	43.1
6.245	45
6.246	46.1
6.247	46.5
6.248	46.3
6.249	45.5
6.25	44.4
6.251	43.2
6.252	41.9
6.253	40.8
6.254	39.9
6.255	39.5
6.256	39.4
6.257	39.8
6.258	40.6
6.259	41.8
6.26	43.2
6.261	44.7
6.262	46.2
6.263	47.6
6.264	48.6
6.265	49.2
6.266	49.3
6.267	48.9
6.268	47.7
6.269	46
6.27	43.6
6.271	40.7
6.272	37.3
6.273	33.3
6.274	29
6.275	24.4
6.276	19.6
6.277	14.5
6.278	9.3
6.279	4
6.28	-1.3
6.281	-6.6
6.282	-11.9
6.283	-17.1
6.284	-22.1
6.285	-26.8
6.286	-31.2
6.287	-35.3
6.288	-38.9
6.289	-42.1
6.29	-44.7
6.291	-46.8
6.292	-48.5
6.293	-49.7
6.294	-50.5
6.295	-50.9
6.296	-51.1
6.297	-51.3
6.298	-51.5
6.299	-51.6
6.3	-52
6.301	-52.5
6.302	-53.3
6.303	-54.3
6.304	-55.4
6.305	-56.5
6.306	-57.7
6.307	-58.7
6.308	-59.5
6.309	-59.9
6.31	-59.9
6.311	-59.5
6.312	-58.7
6.313	-57.6
6.314	-56.1
6.315	-54.5
6.316	-52.9
6.317	-51.5
6.318	-50.3
6.319	-49.6
6.32	-49.5
6.321	-49.9
6.322	-51
6.323	-52.6
6.324	-54.6
6.325	-56.9
6.326	-59.2
6.327	-61.4
6.328	-63.3
6.329	-64.7
6.33	-65.4
6.331	-65.5
6.332	-64.8
6.333	-63.5
6.334	-61.6
6.335	-59.4
6.336	-57.1
6.337	-55
6.338	-53.2
6.339	-52.1
6.34	-51.8
6.341	-52.3
6.342	-53.7
6.343	-56.1
6.344	-59.1
6.345	-62.6
6.346	-66.1
6.347	-69.6
6.348	-72.8
6.349	-75.2
6.35	-76.9
6.351	-77.7
6.352	-77.7
6.353	-77
6.354	-76
6.355	-75.1
6.356	-74.8
6.357	-75.6
6.358	-77.7
6.359	-81.8
6.36	-88.3
6.361	-97.4
6.362	-108.8
6.363	-121.7
6.364	-136.1
6.365	-151.3
6.366	-166.4
6.367	-180
6.368	-190.1
6.369	-196.1
6.37	-196.8
6.371	-191.2
6.372	-178.1
6.373	-155.9
6.374	-125.2
6.375	-86
6.376	-38.5
6.377	16.7
6.378	79
6.379	146.4
6.38	217.5
6.381	290.8
6.382	364.4
6.383	436.7
6.384	505.5
6.385	569.7
6.386	628.1
6.387	679.7
6.388	723.1
6.389	757.6
6.39	783.6
6.391	801.4
6.392	810.8
6.393	811.6
6.394	804.2
6.395	789.9
6.396	769.4
6.397	743.2
6.398	711.3
6.399	674.3
6.4	633.3
6.401	589.2
6.402	542.4
6.403	493
6.404	441.9
6.405	390.2
6.406	338.4
6.407	287.5
6.408	237.8
6.409	190.9
6.41	147.1
6.411	107.2
6.412	71.8
6.413	41.2
6.414	16.5
6.415	-2.6
6.416	-16.6
6.417	-25.5
6.418	-29.9
6.419	-29.6
6.42	-26.1
6.421	-20.4
6.422	-13.3
6.423	-5.8
6.424	2.1
6.425	9
6.426	14.3
6.427	17.7
6.428	18.8
6.429	18.2
6.43	15.6
6.431	11.2
6.432	5.6
6.433	-1
6.434	-7.8
6.435	-14.4
6.436	-20.5
6.437	-25.7
6.438	-29.9
6.439	-32.9
6.44	-34.6
6.441	-35.2
6.442	-34.9
6.443	-34
6.444	-32.8
6.445	-31.4
6.446	-30.3
6.447	-29.6
6.448	-29.5
6.449	-29.9
6.45	-31.1
6.451	-32.9
6.452	-35.1
6.453	-37.6
6.454	-40.3
6.455	-42.8
6.456	-45.1
6.457	-47.1
6.458	-48.6
6.459	-49.6
6.46	-50
6.461	-50
6.462	-49.6
6.463	-49
6.464	-48.2
6.465	-47.3
6.466	-46.5
6.467	-45.9
6.468	-45.3
6.469	-44.9
6.47	-44.6
6.471	-44.3
6.472	-44
6.473	-43.5
6.474	-42.8
6.475	-41.8
6.476	-40.6
6.477	-39.1
6.478	-37.3
6.479	-35.3
6.48	-33.2
6.481	-31.1
6.482	-29.1
6.483	-27.4
6.484	-26
6.485	-24.9
6.486	-24.2
6.487	-23.9
6.488	-23.9
6.489	-24.1
6.49	-24.5
6.491	-24.9
6.492	-25.1
6.493	-25
6.494	-24.6
6.495	-23.9
6.496	-22.7
6.497	-21.1
6.498	-19.1
6.499	-16.9
6.5	-14.6
6.501	-12.3
6.502	-10.1
6.503	-8.1
6.504	-6.4
6.505	-5.2
6.506	-4.4
6.507	-3.9
6.508	-3.8
6.509	-3.9
6.51	-4.1
6.511	-4.3
6.512	-4.4
6.513	-4.2
6.514	-3.7
6.515	-2.9
6.516	-1.6
6.517	-0
6.518	1.9
6.519	4.1
6.52	6.3
6.521	8.6
6.522	10.7
6.523	12.6
6.524	14.1
6.525	15.4
6.526	16.3
6.527	16.8
6.528	17.2
6.529	17.4
6.53	17.5
6.531	17.7
6.532	18
6.533	18.7
6.534	19.6
6.535	20.8
6.536	22.4
6.537	24.2
6.538	26.2
6.539	28.4
6.54	30.5
6.541	32.4
6.542	34.2
6.543	35.7
6.544	36.8
6.545	37.6
6.546	38
6.547	38.2
6.548	38.2
6.549	38.2
6.55	38.2
6.551	38.4
6.552	38.8
6.553	39.7
6.554	41
6.555	42.7
6.556	44.7
6.557	47.1
6.558	49.8
6.559	52.6
6.56	55.5
6.561	58.2
6.562	60.7
6.563	63.1
6.564	65.1
6.565	66.8
6.566	68.3
6.567	69.6
6.568	70.9
6.569	72.2
6.57	73.6
6.571	75.2
6.572	77.1
6.573	79.4
6.574	82.1
6.575	85
6.576	88.2
6.577	91.5
6.578	94.9
6.579	98.2
6.58	101.1
6.581	103.8
6.582	106
6.583	107.8
6.584	109.2
6.585	110.1
6.586	110.7
6.587	111.1
6.588	111.6
6.589	112.3
6.59	113.2
6.591	114.7
6.592	116.8
6.593	119.6
6.594	123.1
6.595	127.3
6.596	131.9
6.597	137.1
6.598	142.5
6.599	147.9
6.6	153.2
6.601	158.1
6.602	162.6
6.603	166.5
6.604	169.7
6.605	172.3
6.606	174.3
6.607	175.9
6.608	177.2
6.609	178.3
6.61	179.4
6.611	180.8
6.612	182.5
6.613	184.8
6.614	187.5
6.615	190.7
6.616	194.5
6.617	198.6
6.618	203
6.619	207.4
6.62	211.7
6.621	215.7
6.622	219.2
6.623	222.3
6.624	224.7
6.625	226.5
6.626	227.7
6.627	228.4
6.628	228.8
6.629	229
6.63	229.2
6.631	229.6
6.632	230.3
6.633	231.4
6.634	232.9
6.635	235
6.636	237.5
6.637	240.4
6.638	243.4
6.639	246.5
6.64	249.4
6.641	252
6.642	254.2
6.643	255.6
6.644	256.2
6.645	256
6.646	255
6.647	253.3
6.648	250.7
6.649	247.5
6.65	243.9
6.651	239.9
6.652	235.7
6.653	231.2
6.654	226.7
6.655	222.1
6.656	217.5
6.657	212.8
6.658	207.9
6.659	202.7
6.66	197.3
6.661	191.5
6.662	185.3
6.663	178.5
6.664	171.3
6.665	163.8
6.666	156
6.667	147.9
6.668	139.7
6.669	131.7
6.67	123.9
6.671	116.4
6.672	109.3
6.673	102.6
6.674	96.4
6.675	90.8
6.676	85.4
6.677	80.3
6.678	75.2
6.679	70.2
6.68	65
6.681	59.5
6.682	53.6
6.683	47.2
6.684	40.5
6.685	33.5
6.686	26.2
6.687	18.8
6.688	11.4
6.689	4.3
6.69	-2.3
6.691	-8.3
6.692	-13.7
6.693	-18.4
6.694	-22.1
6.695	-25
6.696	-27.2
6.697	-28.9
6.698	-30.2
6.699	-31.1
6.7	-32
6.701	-33
6.702	-34.2
6.703	-35.7
6.704	-37.6
6.705	-39.9
6.706	-42.5
6.707	-45.4
6.708	-48.5
6.709	-51.5
6.71	-54.4
6.711	-57
6.712	-59.3
6.713	-61.2
6.714	-62.6
6.715	-63.5
6.716	-64
6.717	-64.1
6.718	-64.1
6.719	-63.8
6.72	-63.6
6.721	-63.5
6.722	-63.5
6.723	-63.8
6.724	-64.3
6.725	-65
6.726	-65.9
6.727	-66.8
6.728	-67.8
6.729	-68.6
6.73	-69.2
6.731	-69.5
6.732	-69.5
6.733	-69.2
6.734	-68.6
6.735	-67.8
6.736	-66.9
6.737	-66
6.738	-65.3
6.739	-64.8
6.74	-64.7
6.741	-65
6.742	-65.8
6.743	-67
6.744	-68.6
6.745	-70.5
6.746	-72.5
6.747	-74.5
6.748	-76.2
6.749	-77.7
6.75	-78.6
6.751	-78.9
6.752	-78.6
6.753	-77.6
6.754	-76.1
6.755	-74.2
6.756	-71.9
6.757	-69.6
6.758	-67.3
6.759	-65.4
6.76	-63.9
6.761	-63.1
6.762	-62.9
6.763	-63.3
6.764	-64.5
6.765	-66.1
6.766	-68.1
6.767	-70.3
6.768	-72.4
6.769	-74.2
6.77	-75.6
6.771	-76.3
6.772	-76.3
6.773	-75.6
6.774	-74.1
6.775	-72
6.776	-69.4
6.777	-66.6
6.778	-63.6
6.779	-60.9
6.78	-58.5
6.781	-56.7
6.782	-55.6
6.783	-55.3
6.784	-55.7
6.785	-56.9
6.786	-58.6
6.787	-60.6
6.788	-62.9
6.789	-65.1
6.79	-67
6.791	-68.4
6.792	-69.3
6.793	-69.5
6.794	-68.9
6.795	-67.7
6.796	-65.9
6.797	-63.7
6.798	-61.3
6.799	-58.8
6.8	-56.6
6.801	-54.8
6.802	-53.6
6.803	-53
6.804	-53
6.805	-53.8
6.806	-55.1
6.807	-56.9
6.808	-59
6.809	-61.1
6.81	-63.1
6.811	-64.9
6.812	-66.2
6.813	-66.9
6.814	-67
6.815	-66.5
6.816	-65.4
6.817	-63.9
6.818	-62
6.819	-59.9
6.82	-57.9
6.821	-55.9
6.822	-54.2
6.823	-52.9
6.824	-52
6.825	-51.6
6.826	-51.5
6.827	-51.7
6.828	-52.2
6.829	-52.7
6.83	-53.3
6.831	-53.8
6.832	-54.1
6.833	-54.1
6.834	-53.9
6.835	-53.5
6.836	-52.9
6.837	-52.3
6.838	-51.6
6.839	-51.1
6.84	-50.8
6.841	-50.7
6.842	-51
6.843	-51.6
6.844	-52.5
6.845	-53.6
6.846	-54.7
6.847	-55.8
6.848	-56.8
6.849	-57.4
6.85	-57.6
6.851	-57.3
6.852	-56.4
6.853	-55
6.854	-53.2
6.855	-51
6.856	-48.6
6.857	-46.1
6.858	-43.8
6.859	-41.9
6.86	-40.4
6.861	-39.4
6.862	-39.2
6.863	-39.5
6.864	-40.5
6.865	-42
6.866	-43.7
6.867	-45.6
6.868	-47.4
6.869	-49
6.87	-50
6.871	-50.5
6.872	-50.2
6.873	-49.2
6.874	-47.6
6.875	-45.4
6.876	-42.8
6.877	-40
6.878	-37.2
6.879	-34.8
6.88	-33
6.881	-31.9
6.882	-31.7
6.883	-32.4
6.884	-34.2
6.885	-36.8
6.886	-40.2
6.887	-44.2
6.888	-48.4
6.889	-52.7
6.89	-56.6
6.891	-60.1
6.892	-62.9
6.893	-64.7
6.894	-65.5
6.895	-65.4
6.896	-64.3
6.897	-62.4
6.898	-59.8
6.899	-56.8
6.9	-53.6
6.901	-50.5
6.902	-47.7
6.903	-45.4
6.904	-43.6
6.905	-42.5
6.906	-42
6.907	-42.1
6.908	-42.8
6.909	-43.7
6.91	-44.9
6.911	-46
6.912	-47
6.913	-47.6
6.914	-47.9
6.915	-47.6
6.916	-47
6.917	-45.9
6.918	-44.5
6.919	-43
6.92	-41.4
6.921	-40.1
6.922	-39
6.923	-38.4
6.924	-38.3
6.925	-38.9
6.926	-40
6.927	-41.7
6.928	-43.7
6.929	-46.1
6.93	-48.7
6.931	-51.2
6.932	-53.6
6.933	-55.6
6.934	-57.1
6.935	-58
6.936	-58.3
6.937	-58
6.938	-57.1
6.939	-55.7
6.94	-53.8
6.941	-51.7
6.942	-49.4
6.943	-47.1
6.944	-44.9
6.945	-42.8
6.946	-41
6.947	-39.6
6.948	-38.4
6.949	-37.6
6.95	-37.1
6.951	-36.8
6.952	-36.8
6.953	-37
6.954	-37.3
6.955	-37.7
6.956	-38.2
6.957	-38.7
6.958	-39.4
6.959	-40.1
6.96	-40.9
6.961	-41.8
6.962	-42.9
6.963	-44
6.964	-45.2
6.965	-46.4
6.966	-47.6
6.967	-48.8
6.968	-49.8
6.969	-50.7
6.97	-51.4
6.971	-51.7
6.972	-51.8
6.973	-51.6
6.974	-51.1
6.975	-50.4
6.976	-49.5
6.977	-48.5
6.978	-47.4
6.979	-46.4
6.98	-45.5
6.981	-44.8
6.982	-44.3
6.983	-44.1
6.984	-44.1
6.985	-44.4
6.986	-44.9
6.987	-45.6
6.988	-46.4
6.989	-47.2
6.99	-48
6.991	-48.8
6.992	-49.4
6.993	-49.8
6.994	-50.1
6.995	-50.2
6.996	-50.2
6.997	-50
6.998	-49.7
6.999	-49.4
7	-48.9
7.001	-48.5
7.002	-48
7.003	-47.5
7.004	-46.9
7.005	-46.2
7.006	-45.4
7.007	-44.3
7.008	-43.1
7.009	-41.6
7.01	-39.9
7.011	-37.9
7.012	-35.8
7.013	-33.5
7.014	-31.2
7.015	-29
7.016	-26.9
7.017	-25
7.018	-23.4
7.019	-22.2
7.02	-21.5
7.021	-21.1
7.022	-21.2
7.023	-21.6
7.024	-22.2
7.025	-22.9
7.026	-23.7
7.027	-24.2
7.028	-24.4
7.029	-24.1
7.03	-23.3
7.031	-21.8
7.032	-19.7
7.033	-16.8
7.034	-13.3
7.035	-9.3
7.036	-4.9
7.037	-0.1
7.038	4.8
7.039	9.7
7.04	14.4
7.041	18.9
7.042	23
7.043	26.7
7.044	29.9
7.045	32.7
7.046	35
7.047	36.9
7.048	38.5
7.049	39.8
7.05	40.9
7.051	41.9
7.052	42.8
7.053	43.6
7.054	44.2
7.055	44.8
7.056	45.2
7.057	45.5
7.058	45.6
7.059	45.3
7.06	44.8
7.061	44
7.062	43
7.063	41.6
7.064	40.1
7.065	38.4
7.066	36.7
7.067	34.9
7.068	33.1
7.069	31.5
7.07	29.9
7.071	28.4
7.072	27
7.073	25.5
7.074	24
7.075	22.2
7.076	20.2
7.077	17.9
7.078	15
7.079	11.6
7.08	7.7
7.081	3.4
7.082	-1.4
7.083	-6.6
7.084	-11.9
7.085	-17.3
7.086	-22.5
7.087	-27.4
7.088	-31.8
7.089	-35.5
7.09	-38.6
7.091	-40.9
7.092	-42.5
7.093	-43.4
7.094	-43.7
7.095	-43.6
7.096	-43.4
7.097	-43.1
7.098	-43
7.099	-43.2
7.1	-43.9
7.101	-45.1
7.102	-47
7.103	-49.5
7.104	-52.4
7.105	-55.7
7.106	-59.2
7.107	-62.7
7.108	-66
7.109	-68.9
7.11	-71.2
7.111	-72.9
7.112	-73.8
7.113	-74
7.114	-73.5
7.115	-72.4
7.116	-70.8
7.117	-69
7.118	-67
7.119	-65.1
7.12	-63.4
7.121	-62
7.122	-61.1
7.123	-60.5
7.124	-60.4
7.125	-60.5
7.126	-60.7
7.127	-61.1
7.128	-61.3
7.129	-61.3
7.13	-61.1
7.131	-60.4
7.132	-59.5
7.133	-58.3
7.134	-56.9
7.135	-55.6
7.136	-54.5
7.137	-53.8
7.138	-53.7
7.139	-54.3
7.14	-55.8
7.141	-58.1
7.142	-61.2
7.143	-65
7.144	-69.1
7.145	-73.4
7.146	-77.3
7.147	-80.7
7.148	-83.2
7.149	-84.6
7.15	-84.5
7.151	-83.1
7.152	-80.2
7.153	-76.3
7.154	-71.6
7.155	-66.7
7.156	-62.1
7.157	-58.5
7.158	-56.3
7.159	-56.4
7.16	-59.2
7.161	-65.2
7.162	-74.4
7.163	-86.2
7.164	-100.9
7.165	-117.8
7.166	-136.1
7.167	-154.8
7.168	-171.7
7.169	-186.4
7.17	-197.6
7.171	-203.9
7.172	-204.1
7.173	-196.3
7.174	-180.6
7.175	-156.5
7.176	-124
7.177	-83.2
7.178	-33.9
7.179	22.2
7.18	84.1
7.181	150.5
7.182	219.9
7.183	291.1
7.184	361.7
7.185	430.5
7.186	496.3
7.187	557.7
7.188	613.3
7.189	661.8
7.19	703.1
7.191	737
7.192	763
7.193	780.5
7.194	789.2
7.195	790.1
7.196	783.7
7.197	770.3
7.198	749.5
7.199	721.8
7.2	688.5
7.201	650.3
7.202	607.8
7.203	560.9
7.204	510.7
7.205	458.4
7.206	404.9
7.207	350.9
7.208	297
7.209	244.7
7.21	194.8
7.211	147.9
7.212	105
7.213	66.4
7.214	33.3
7.215	5.6
7.216	-16.7
7.217	-33.8
7.218	-45.8
7.219	-52.4
7.22	-54.8
7.221	-53.9
7.222	-50.4
7.223	-45
7.224	-37.9
7.225	-30.4
7.226	-23.3
7.227	-17
7.228	-12.1
7.229	-8.2
7.23	-5.8
7.231	-5.1
7.232	-6
7.233	-8.1
7.234	-11.1
7.235	-14.7
7.236	-18.7
7.237	-22.7
7.238	-26.7
7.239	-30.2
7.24	-33.2
7.241	-35.5
7.242	-37.3
7.243	-38.6
7.244	-39.5
7.245	-40
7.246	-40.3
7.247	-40.6
7.248	-40.9
7.249	-41.3
7.25	-41.9
7.251	-42.8
7.252	-43.8
7.253	-45
7.254	-46.3
7.255	-47.7
7.256	-49
7.257	-50.2
7.258	-51.3
7.259	-52.1
7.26	-52.6
7.261	-52.8
7.262	-52.8
7.263	-52.5
7.264	-52
7.265	-51.2
7.266	-50.2
7.267	-49.2
7.268	-48
7.269	-46.7
7.27	-45.5
7.271	-44.2
7.272	-43
7.273	-41.9
7.274	-40.8
7.275	-40
7.276	-39.3
7.277	-38.8
7.278	-38.5
7.279	-38.4
7.28	-38.6
7.281	-38.9
7.282	-39.4
7.283	-40
7.284	-40.6
7.285	-41.2
7.286	-41.7
7.287	-42
7.288	-41.9
7.289	-41.5
7.29	-40.8
7.291	-39.6
7.292	-38.1
7.293	-36.1
7.294	-34
7.295	-31.6
7.296	-29.2
7.297	-26.8
7.298	-24.5
7.299	-22.5
7.3	-20.9
7.301	-19.6
7.302	-18.8
7.303	-18.4
7.304	-18.4
7.305	-18.6
7.306	-19
7.307	-19.5
7.308	-19.9
7.309	-20.1
7.31	-20.1
7.311	-19.7
7.312	-18.9
7.313	-17.6
7.314	-16
7.315	-14
7.316	-11.8
7.317	-9.5
7.318	-7.1
7.319	-4.9
7.32	-2.8
7.321	-1.1
7.322	0.4
7.323	1.6
7.324	2.5
7.325	3.1
7.326	3.5
7.327	3.8
7.328	4.2
7.329	4.6
7.33	5.2
7.331	6
7.332	7
7.333	8.2
7.334	9.6
7.335	11.1
7.336	12.6
7.337	14
7.338	15.3
7.339	16.3
7.34	17.1
7.341	17.5
7.342	17.6
7.343	17.5
7.344	17.3
7.345	17
7.346	16.8
7.347	16.8
7.348	17.2
7.349	18
7.35	19.4
7.351	21.2
7.352	23.6
7.353	26.4
7.354	29.6
7.355	33
7.356	36.4
7.357	39.6
7.358	42.7
7.359	45.2
7.36	47.3
7.361	48.7
7.362	49.6
7.363	50
7.364	49.9
7.365	49.5
7.366	48.9
7.367	48.5
7.368	48.3
7.369	48.4
7.37	49.1
7.371	50.4
7.372	52.3
7.373	54.9
7.374	58.1
7.375	61.6
7.376	65.5
7.377	69.5
7.378	73.5
7.379	77.2
7.38	80.6
7.381	83.6
7.382	86
7.383	88.1
7.384	89.7
7.385	91.1
7.386	92.2
7.387	93.4
7.388	94.8
7.389	96.5
7.39	98.7
7.391	101.4
7.392	104.8
7.393	108.9
7.394	113.6
7.395	118.6
7.396	124.1
7.397	129.7
7.398	135.4
7.399	140.8
7.4	145.9
7.401	150.5
7.402	154.5
7.403	158.1
7.404	161
7.405	163.3
7.406	165.2
7.407	166.8
7.408	168.4
7.409	169.8
7.41	171.4
7.411	173.2
7.412	175.4
7.413	178
7.414	180.9
7.415	184.2
7.416	187.9
7.417	191.7
7.418	195.8
7.419	199.8
7.42	203.7
7.421	207.4
7.422	210.9
7.423	214.2
7.424	217
7.425	219.6
7.426	221.9
7.427	223.9
7.428	225.8
7.429	227.4
7.43	229
7.431	230.5
7.432	231.9
7.433	233.2
7.434	234.5
7.435	235.5
7.436	236.5
7.437	237.2
7.438	237.6
7.439	237.7
7.44	237.5
7.441	236.9
7.442	236.1
7.443	235
7.444	233.6
7.445	232.1
7.446	230.5
7.447	228.9
7.448	227.3
7.449	225.7
7.45	224.2
7.451	222.7
7.452	221.1
7.453	219.3
7.454	217.3
7.455	214.9
7.456	212.1
7.457	208.6
7.458	204.3
7.459	199.4
7.46	193.6
7.461	187.2
7.462	180
7.463	172
7.464	163.6
7.465	154.9
7.466	146.1
7.467	137.2
7.468	128.2
7.469	119.7
7.47	111.5
7.471	103.7
7.472	96.3
7.473	89.2
7.474	82.5
7.475	76.1
7.476	69.9
7.477	63.8
7.478	57.5
7.479	51.2
7.48	44.9
7.481	38.4
7.482	31.7
7.483	24.8
7.484	18.1
7.485	11.6
7.486	5.2
7.487	-0.9
7.488	-6.6
7.489	-11.6
7.49	-16.1
7.491	-20
7.492	-23.3
7.493	-26.2
7.494	-28.5
7.495	-30.5
7.496	-32.3
7.497	-34.1
7.498	-35.9
7.499	-37.6
7.5	-39.6
7.501	-41.7
7.502	-43.9
7.503	-46.3
7.504	-48.7
7.505	-51
7.506	-53.1
7.507	-55
7.508	-56.5
7.509	-57.6
7.51	-58.3
7.511	-58.5
7.512	-58.4
7.513	-58
7.514	-57.4
7.515	-56.8
7.516	-56.4
7.517	-56.3
7.518	-56.5
7.519	-57.3
7.52	-58.6
7.521	-60.5
7.522	-62.8
7.523	-65.7
7.524	-68.8
7.525	-72.1
7.526	-75.4
7.527	-78.4
7.528	-81.2
7.529	-83.4
7.53	-85
7.531	-86.1
7.532	-86.5
7.533	-86.3
7.534	-85.6
7.535	-84.6
7.536	-83.3
7.537	-82.1
7.538	-80.9
7.539	-79.9
7.54	-79.2
7.541	-78.9
7.542	-79.1
7.543	-79.5
7.544	-80.2
7.545	-81
7.546	-81.9
7.547	-82.6
7.548	-83.1
7.549	-83.1
7.55	-82.7
7.551	-81.8
7.552	-80.4
7.553	-78.6
7.554	-76.4
7.555	-74.1
7.556	-71.8
7.557	-69.6
7.558	-67.8
7.559	-66.5
7.56	-65.8
7.561	-65.8
7.562	-66.6
7.563	-68
7.564	-69.9
7.565	-72.4
7.566	-75
7.567	-77.8
7.568	-80.4
7.569	-82.6
7.57	-84.4
7.571	-85.5
7.572	-86
7.573	-85.7
7.574	-84.7
7.575	-83.2
7.576	-81.2
7.577	-78.9
7.578	-76.5
7.579	-74.2
7.58	-72.2
7.581	-70.6
7.582	-69.5
7.583	-68.9
7.584	-69
7.585	-69.6
7.586	-70.6
7.587	-72
7.588	-73.6
7.589	-75.2
7.59	-76.8
7.591	-78.1
7.592	-79.1
7.593	-79.7
7.594	-79.9
7.595	-79.7
7.596	-79.1
7.597	-78.1
7.598	-76.9
7.599	-75.6
7.6	-74.3
7.601	-73
7.602	-71.8
7.603	-70.7
7.604	-69.9
7.605	-69.2
7.606	-68.7
7.607	-68.4
7.608	-68.1
7.609	-67.8
7.61	-67.6
7.611	-67.2
7.612	-66.9
7.613	-66.4
7.614	-66
7.615	-65.5
7.616	-65.1
7.617	-64.8
7.618	-64.7
7.619	-64.8
7.62	-65.1
7.621	-65.6
7.622	-66.4
7.623	-67.3
7.624	-68.3
7.625	-69.4
7.626	-70.3
7.627	-71
7.628	-71.5
7.629	-71.6
7.63	-71.4
7.631	-70.7
7.632	-69.7
7.633	-68.3
7.634	-66.6
7.635	-64.9
7.636	-63.1
7.637	-61.5
7.638	-60.1
7.639	-59
7.64	-58.4
7.641	-58.3
7.642	-58.6
7.643	-59.4
7.644	-60.5
7.645	-61.8
7.646	-63.3
7.647	-64.7
7.648	-65.9
7.649	-66.7
7.65	-67.2
7.651	-67.1
7.652	-66.4
7.653	-65.2
7.654	-63.4
7.655	-61.2
7.656	-58.7
7.657	-56.1
7.658	-53.4
7.659	-50.8
7.66	-48.5
7.661	-46.6
7.662	-45.2
7.663	-44.3
7.664	-44
7.665	-44.1
7.666	-44.8
7.667	-45.8
7.668	-47.1
7.669	-48.5
7.67	-50
7.671	-51.4
7.672	-52.6
7.673	-53.6
7.674	-54.3
7.675	-54.7
7.676	-54.8
7.677	-54.5
7.678	-54
7.679	-53.3
7.68	-52.4
7.681	-51.3
7.682	-50.3
7.683	-49.2
7.684	-48.2
7.685	-47.2
7.686	-46.3
7.687	-45.6
7.688	-45.1
7.689	-44.7
7.69	-44.5
7.691	-44.6
7.692	-44.8
7.693	-45.4
7.694	-46.2
7.695	-47.2
7.696	-48.5
7.697	-49.9
7.698	-51.6
7.699	-53.3
7.7	-55.1
7.701	-56.8
7.702	-58.4
7.703	-59.8
7.704	-60.9
7.705	-61.6
7.706	-61.9
7.707	-61.7
7.708	-61.2
7.709	-60.2
7.71	-59
7.711	-57.6
7.712	-56
7.713	-54.5
7.714	-53.1
7.715	-52
7.716	-51.2
7.717	-50.8
7.718	-50.9
7.719	-51.3
7.72	-52.2
7.721	-53.3
7.722	-54.6
7.723	-56
7.724	-57.3
7.725	-58.4
7.726	-59.1
7.727	-59.4
7.728	-59.3
7.729	-58.6
7.73	-57.5
7.731	-56.1
7.732	-54.3
7.733	-52.4
7.734	-50.5
7.735	-48.8
7.736	-47.3
7.737	-46.2
7.738	-45.6
7.739	-45.5
7.74	-45.9
7.741	-46.8
7.742	-48
7.743	-49.5
7.744	-51.1
7.745	-52.6
7.746	-54
7.747	-55.2
7.748	-55.9
7.749	-56.3
7.75	-56.2
7.751	-55.8
7.752	-55.1
7.753	-54.2
7.754	-53.2
7.755	-52.2
7.756	-51.5
7.757	-51
7.758	-50.8
7.759	-51.1
7.76	-51.7
7.761	-52.6
7.762	-53.8
7.763	-55.1
7.764	-56.3
7.765	-57.4
7.766	-58.2
7.767	-58.5
7.768	-58.3
7.769	-57.5
7.77	-56.2
7.771	-54.3
7.772	-51.9
7.773	-49.3
7.774	-46.5
7.775	-43.7
7.776	-41.1
7.777	-38.8
7.778	-36.9
7.779	-35.7
7.78	-35.1
7.781	-35
7.782	-35.6
7.783	-36.7
7.784	-38.2
7.785	-40
7.786	-42
7.787	-44
7.788	-45.9
7.789	-47.5
7.79	-49
7.791	-50.1
7.792	-50.9
7.793	-51.4
7.794	-51.7
7.795	-51.9
7.796	-51.8
7.797	-51.8
7.798	-51.7
7.799	-51.6
7.8	-51.5
7.801	-51.4
7.802	-51.2
7.803	-51
7.804	-50.5
7.805	-49.9
7.806	-49
7.807	-47.8
7.808	-46.3
7.809	-44.6
7.81	-42.6
7.811	-40.5
7.812	-38.3
7.813	-36.2
7.814	-34.2
7.815	-32.6
7.816	-31.3
7.817	-30.3
7.818	-29.7
7.819	-29.4
7.82	-29.4
7.821	-29.5
7.822	-29.6
7.823	-29.5
7.824	-29
7.825	-28
7.826	-26.3
7.827	-23.8
7.828	-20.5
7.829	-16.4
7.83	-11.5
7.831	-6
7.832	-0.1
7.833	6.2
7.834	12.4
7.835	18.4
7.836	23.9
7.837	28.9
7.838	33
7.839	36.3
7.84	38.5
7.841	39.9
7.842	40.5
7.843	40.4
7.844	39.8
7.845	38.7
7.846	37.6
7.847	36.5
7.848	35.6
7.849	34.9
7.85	34.7
7.851	34.9
7.852	35.4
7.853	36.3
7.854	37.4
7.855	38.6
7.856	39.8
7.857	40.9
7.858	41.7
7.859	42.1
7.86	42.1
7.861	41.6
7.862	40.8
7.863	39.5
7.864	37.9
7.865	35.9
7.866	33.8
7.867	31.4
7.868	28.8
7.869	26.1
7.87	23.2
7.871	20.1
7.872	16.6
7.873	12.7
7.874	8.4
7.875	3.6
7.876	-1.7
7.877	-7.6
7.878	-13.9
7.879	-20.5
7.88	-27.4
7.881	-34.2
7.882	-40.8
7.883	-47
7.884	-52.4
7.885	-56.9
7.886	-60.3
7.887	-62.5
7.888	-63.6
7.889	-63.4
7.89	-62.1
7.891	-60
7.892	-57.3
7.893	-54.2
7.894	-51
7.895	-48
7.896	-45.7
7.897	-44.1
7.898	-43.4
7.899	-43.7
7.9	-45
7.901	-47.2
7.902	-50.2
7.903	-53.7
7.904	-57.5
7.905	-61.2
7.906	-64.7
7.907	-67.6
7.908	-69.8
7.909	-71.2
7.91	-71.7
7.911	-71.4
7.912	-70.5
7.913	-69
7.914	-67.2
7.915	-65.4
7.916	-63.8
7.917	-62.6
7.918	-62
7.919	-62
7.92	-62.7
7.921	-64
7.922	-65.8
7.923	-68
7.924	-70.3
7.925	-72.4
7.926	-74.3
7.927	-75.6
7.928	-76.3
7.929	-76.3
7.93	-75.6
7.931	-74.2
7.932	-72.4
7.933	-70.3
7.934	-68.1
7.935	-66.1
7.936	-64.4
7.937	-63.2
7.938	-62.7
7.939	-62.9
7.94	-63.6
7.941	-64.8
7.942	-66.3
7.943	-67.9
7.944	-69.4
7.945	-70.6
7.946	-71.2
7.947	-71.3
7.948	-70.9
7.949	-70.1
7.95	-69.4
7.951	-69
7.952	-69.3
7.953	-70.6
7.954	-73.7
7.955	-79
7.956	-86.9
7.957	-97.3
7.958	-109.7
7.959	-124.3
7.96	-140.6
7.961	-158
7.962	-175.2
7.963	-190.2
7.964	-202.6
7.965	-211
7.966	-214.2
7.967	-210.8
7.968	-198.8
7.969	-178.5
7.97	-149.4
7.971	-111.4
7.972	-64.7
7.973	-9.4
7.974	52.7
7.975	120.4
7.976	192.1
7.977	266.2
7.978	340.9
7.979	414
7.98	483.9
7.981	549.3
7.982	608.7
7.983	660.7
7.984	704.2
7.985	739.2
7.986	765.8
7.987	783.9
7.988	793
7.989	793.5
7.99	786.7
7.991	773.4
7.992	754.1
7.993	728.9
7.994	698.5
7.995	664
7.996	626.2
7.997	585.6
7.998	542.2
7.999	496.7
8	449.8
8.001	402.3
8.002	354.7
8.003	307.1
8.004	260.9
8.005	216.5
8.006	174.6
8.007	135.7
8.008	100.3
8.009	69.6
8.01	43.5
8.011	22
8.012	5.1
8.013	-7.3
8.014	-14.7
8.015	-18.3
8.016	-18.9
8.017	-17.1
8.018	-13.7
8.019	-8.8
8.02	-3.7
8.021	0.8
8.022	4.3
8.023	6.1
8.024	6.6
8.025	5.4
8.026	2.3
8.027	-2.4
8.028	-8.5
8.029	-15.2
8.03	-22.4
8.031	-29.7
8.032	-36.7
8.033	-43.1
8.034	-48.4
8.035	-52.6
8.036	-55.6
8.037	-57.4
8.038	-58.2
8.039	-58
8.04	-57
8.041	-55.6
8.042	-53.9
8.043	-52.2
8.044	-50.5
8.045	-49.2
8.046	-48.1
8.047	-47.5
8.048	-47.3
8.049	-47.3
8.05	-47.6
8.051	-48.1
8.052	-48.7
8.053	-49.3
8.054	-49.9
8.055	-50.3
8.056	-50.7
8.057	-51
8.058	-51.1
8.059	-51.3
8.06	-51.4
8.061	-51.5
8.062	-51.6
8.063	-51.8
8.064	-52
8.065	-52.1
8.066	-52.2
8.067	-52.2
8.068	-52.1
8.069	-51.8
8.07	-51.2
8.071	-50.5
8.072	-49.5
8.073	-48.3
8.074	-47
8.075	-45.7
8.076	-44.3
8.077	-43.1
8.078	-41.9
8.079	-40.9
8.08	-40.1
8.081	-39.6
8.082	-39.2
8.083	-38.9
8.084	-38.7
8.085	-38.4
8.086	-38
8.087	-37.4
8.088	-36.6
8.089	-35.4
8.09	-33.8
8.091	-31.9
8.092	-29.7
8.093	-27.3
8.094	-24.7
8.095	-22.1
8.096	-19.7
8.097	-17.4
8.098	-15.4
8.099	-13.9
8.1	-12.9
8.101	-12.3
8.102	-12.2
8.103	-12.4
8.104	-13.1
8.105	-14
8.106	-15.1
8.107	-16.2
8.108	-17.2
8.109	-18
8.11	-18.7
8.111	-19.1
8.112	-19.2
8.113	-18.9
8.114	-18.4
8.115	-17.7
8.116	-16.8
8.117	-15.7
8.118	-14.5
8.119	-13.3
8.12	-11.9
8.121	-10.4
8.122	-8.9
8.123	-7.1
8.124	-5.2
8.125	-3.1
8.126	-0.8
8.127	1.7
8.128	4.4
8.129	7.3
8.13	10.1
8.131	13
8.132	15.7
8.133	18.1
8.134	20.1
8.135	21.5
8.136	22.5
8.137	22.8
8.138	22.5
8.139	21.6
8.14	20.2
8.141	18.5
8.142	16.6
8.143	14.8
8.144	13.2
8.145	11.9
8.146	11.2
8.147	11.1
8.148	11.9
8.149	13.4
8.15	15.7
8.151	18.6
8.152	22.1
8.153	25.9
8.154	30
8.155	34
8.156	37.8
8.157	41.3
8.158	44.4
8.159	46.9
8.16	48.8
8.161	50.2
8.162	51.2
8.163	51.8
8.164	52.2
8.165	52.6
8.166	53.1
8.167	53.9
8.168	55.1
8.169	56.7
8.17	58.8
8.171	61.3
8.172	64.3
8.173	67.7
8.174	71.3
8.175	75
8.176	78.6
8.177	82.1
8.178	85.4
8.179	88.3
8.18	90.8
8.181	93
8.182	94.9
8.183	96.6
8.184	98.1
8.185	99.5
8.186	101
8.187	102.5
8.188	104.4
8.189	106.4
8.19	108.8
8.191	111.3
8.192	114.1
8.193	117.2
8.194	120.3
8.195	123.5
8.196	126.7
8.197	129.9
8.198	133.1
8.199	136.2
8.2	139.3
8.201	142.5
8.202	145.7
8.203	149.1
8.204	152.7
8.205	156.5
8.206	160.5
8.207	164.8
8.208	169.4
8.209	173.9
8.21	178.5
8.211	182.9
8.212	187.1
8.213	190.9
8.214	194.1
8.215	196.7
8.216	198.7
8.217	200
8.218	200.8
8.219	201
8.22	201
8.221	200.8
8.222	200.6
8.223	200.8
8.224	201.4
8.225	202.6
8.226	204.6
8.227	207.3
8.228	210.8
8.229	214.8
8.23	219.3
8.231	224
8.232	228.7
8.233	233
8.234	236.6
8.235	239.4
8.236	241.1
8.237	241.6
8.238	240.8
8.239	238.6
8.24	235.3
8.241	231
8.242	226
8.243	220.3
8.244	214.5
8.245	208.8
8.246	203.5
8.247	198.7
8.248	194.4
8.249	190.8
8.25	187.9
8.251	185.6
8.252	183.6
8.253	181.5
8.254	179.4
8.255	176.8
8.256	173.5
8.257	169.2
8.258	163.8
8.259	157.2
8.26	149.5
8.261	140.8
8.262	131.1
8.263	120.6
8.264	109.8
8.265	98.9
8.266	88.2
8.267	77.9
8.268	68.2
8.269	59.4
8.27	51.6
8.271	44.8
8.272	38.8
8.273	33.5
8.274	29.1
8.275	25.2
8.276	21.5
8.277	17.9
8.278	14.1
8.279	10.4
8.28	6.3
8.281	2
8.282	-2.7
8.283	-7.6
8.284	-12.4
8.285	-17.2
8.286	-21.8
8.287	-26.1
8.288	-30.2
8.289	-33.7
8.29	-36.7
8.291	-39.3
8.292	-41.6
8.293	-43.7
8.294	-45.5
8.295	-47.3
8.296	-49.3
8.297	-51.4
8.298	-53.9
8.299	-56.6
8.3	-59.6
8.301	-62.8
8.302	-66.2
8.303	-69.7
8.304	-73
8.305	-76
8.306	-78.7
8.307	-80.9
8.308	-82.5
8.309	-83.6
8.31	-84
8.311	-84
8.312	-83.6
8.313	-83
8.314	-82.2
8.315	-81.5
8.316	-80.9
8.317	-80.6
8.318	-80.6
8.319	-81
8.32	-81.7
8.321	-82.7
8.322	-83.9
8.323	-85.1
8.324	-86.2
8.325	-87.1
8.326	-87.7
8.327	-87.9
8.328	-87.7
8.329	-87
8.33	-86
8.331	-84.8
8.332	-83.4
8.333	-82.2
8.334	-81.1
8.335	-80.4
8.336	-80.2
8.337	-80.6
8.338	-81.5
8.339	-83.1
8.34	-85.1
8.341	-87.5
8.342	-90
8.343	-92.5
8.344	-94.7
8.345	-96.4
8.346	-97.5
8.347	-97.8
8.348	-97.3
8.349	-95.9
8.35	-93.8
8.351	-91.1
8.352	-87.9
8.353	-84.5
8.354	-81.2
8.355	-78.3
8.356	-75.9
8.357	-74.3
8.358	-73.5
8.359	-73.7
8.36	-74.8
8.361	-76.8
8.362	-79.4
8.363	-82.6
8.364	-85.9
8.365	-89.3
8.366	-92.3
8.367	-94.8
8.368	-96.5
8.369	-97.5
8.37	-97.5
8.371	-96.6
8.372	-95
8.373	-92.6
8.374	-89.9
8.375	-86.9
8.376	-83.8
8.377	-81
8.378	-78.6
8.379	-76.8
8.38	-75.6
8.381	-75.1
8.382	-75.2
8.383	-75.9
8.384	-77.1
8.385	-78.6
8.386	-80.2
8.387	-81.7
8.388	-83.1
8.389	-84.1
8.39	-84.7
8.391	-84.8
8.392	-84.5
8.393	-83.8
8.394	-82.9
8.395	-81.7
8.396	-80.5
8.397	-79.3
8.398	-78.4
8.399	-77.7
8.4	-77.4
8.401	-77.4
8.402	-77.8
8.403	-78.5
8.404	-79.5
8.405	-80.5
8.406	-81.7
8.407	-82.7
8.408	-83.6
8.409	-84.2
8.41	-84.5
8.411	-84.5
8.412	-84.1
8.413	-83.4
8.414	-82.4
8.415	-81.1
8.416	-79.7
8.417	-78.3
8.418	-76.7
8.419	-75.2
8.42	-73.8
8.421	-72.4
8.422	-71.1
8.423	-69.9
8.424	-68.7
8.425	-67.6
8.426	-66.6
8.427	-65.7
8.428	-64.8
8.429	-64.1
8.43	-63.6
8.431	-63.3
8.432	-63.2
8.433	-63.6
8.434	-64.3
8.435	-65.4
8.436	-66.9
8.437	-68.7
8.438	-70.8
8.439	-73.1
8.44	-75.5
8.441	-77.7
8.442	-79.8
8.443	-81.4
8.444	-82.4
8.445	-82.9
8.446	-82.6
8.447	-81.7
8.448	-80
8.449	-77.7
8.45	-74.9
8.451	-71.8
8.452	-68.5
8.453	-65.2
8.454	-62.2
8.455	-59.5
8.456	-57.3
8.457	-55.8
8.458	-54.8
8.459	-54.5
8.46	-54.7
8.461	-55.4
8.462	-56.4
8.463	-57.6
8.464	-58.7
8.465	-59.6
8.466	-60.2
8.467	-60.3
8.468	-60
8.469	-59.2
8.47	-58
8.471	-56.4
8.472	-54.5
8.473	-52.6
8.474	-50.8
8.475	-49.3
8.476	-48.1
8.477	-47.4
8.478	-47.3
8.479	-47.8
8.48	-48.8
8.481	-50.3
8.482	-52.2
8.483	-54.3
8.484	-56.5
8.485	-58.7
8.486	-60.6
8.487	-62.3
8.488	-63.5
8.489	-64.3
8.49	-64.7
8.491	-64.7
8.492	-64.4
8.493	-63.8
8.494	-63.1
8.495	-62.4
8.496	-61.8
8.497	-61.4
8.498	-61.2
8.499	-61.2
8.5	-61.5
8.501	-61.9
8.502	-62.6
8.503	-63.2
8.504	-63.9
8.505	-64.4
8.506	-64.7
8.507	-64.8
8.508	-64.7
8.509	-64.3
8.51	-63.7
8.511	-63
8.512	-62.2
8.513	-61.5
8.514	-60.9
8.515	-60.5
8.516	-60.3
8.517	-60.4
8.518	-60.7
8.519	-61.3
8.52	-62.1
8.521	-62.9
8.522	-63.8
8.523	-64.5
8.524	-64.9
8.525	-65.1
8.526	-65
8.527	-64.5
8.528	-63.7
8.529	-62.7
8.53	-61.5
8.531	-60.3
8.532	-59.1
8.533	-58.2
8.534	-57.7
8.535	-57.5
8.536	-57.9
8.537	-58.8
8.538	-60.1
8.539	-61.9
8.54	-63.8
8.541	-65.9
8.542	-67.9
8.543	-69.7
8.544	-71
8.545	-71.8
8.546	-72
8.547	-71.5
8.548	-70.3
8.549	-68.6
8.55	-66.4
8.551	-63.9
8.552	-61.3
8.553	-58.8
8.554	-56.5
8.555	-54.8
8.556	-53.6
8.557	-53
8.558	-53.2
8.559	-54
8.56	-55.4
8.561	-57.2
8.562	-59.3
8.563	-61.4
8.564	-63.4
8.565	-65.1
8.566	-66.4
8.567	-67
8.568	-67.1
8.569	-66.5
8.57	-65.3
8.571	-63.7
8.572	-61.7
8.573	-59.5
8.574	-57.4
8.575	-55.3
8.576	-53.6
8.577	-52.2
8.578	-51.2
8.579	-50.7
8.58	-50.6
8.581	-50.9
8.582	-51.4
8.583	-52
8.584	-52.7
8.585	-53.2
8.586	-53.6
8.587	-53.7
8.588	-53.5
8.589	-53.1
8.59	-52.5
8.591	-51.8
8.592	-51.1
8.593	-50.5
8.594	-50.2
8.595	-50.1
8.596	-50.5
8.597	-51.2
8.598	-52.3
8.599	-53.7
8.6	-55.2
8.601	-56.7
8.602	-58.1
8.603	-59.2
8.604	-59.8
8.605	-59.9
8.606	-59.2
8.607	-57.9
8.608	-55.9
8.609	-53.4
8.61	-50.5
8.611	-47.3
8.612	-44.2
8.613	-41.2
8.614	-38.6
8.615	-36.7
8.616	-35.4
8.617	-35
8.618	-35.2
8.619	-36.2
8.62	-37.7
8.621	-39.5
8.622	-41.5
8.623	-43.2
8.624	-44.4
8.625	-45
8.626	-44.6
8.627	-43.1
8.628	-40.4
8.629	-36.6
8.63	-31.6
8.631	-25.7
8.632	-19
8.633	-11.8
8.634	-4.4
8.635	2.9
8.636	9.8
8.637	16.1
8.638	21.7
8.639	26.2
8.64	29.7
8.641	32.1
8.642	33.7
8.643	34.4
8.644	34.3
8.645	33.8
8.646	33
8.647	32.1
8.648	31.2
8.649	30.5
8.65	30.1
8.651	30.1
8.652	30.4
8.653	31
8.654	31.9
8.655	32.9
8.656	33.9
8.657	35
8.658	35.9
8.659	36.6
8.66	37
8.661	37.1
8.662	36.9
8.663	36.3
8.664	35.3
8.665	34.1
8.666	32.6
8.667	30.7
8.668	28.5
8.669	26
8.67	23.2
8.671	20
8.672	16.4
8.673	12.3
8.674	7.9
8.675	3.1
8.676	-2.1
8.677	-7.5
8.678	-13.2
8.679	-18.9
8.68	-24.5
8.681	-29.9
8.682	-34.9
8.683	-39.4
8.684	-43.1
8.685	-46.1
8.686	-48.4
8.687	-49.9
8.688	-50.8
8.689	-51
8.69	-50.7
8.691	-50.3
8.692	-49.8
8.693	-49.5
8.694	-49.4
8.695	-49.9
8.696	-50.9
8.697	-52.5
8.698	-54.7
8.699	-57.4
8.7	-60.4
8.701	-63.6
8.702	-66.7
8.703	-69.6
8.704	-72
8.705	-73.7
8.706	-74.7
8.707	-74.8
8.708	-74.1
8.709	-72.6
8.71	-70.4
8.711	-67.9
8.712	-65.1
8.713	-62.5
8.714	-60.2
8.715	-58.4
8.716	-57.5
8.717	-57.5
8.718	-58.5
8.719	-60.5
8.72	-63.2
8.721	-66.6
8.722	-70.4
8.723	-74.3
8.724	-78
8.725	-81.2
8.726	-83.6
8.727	-85
8.728	-85.3
8.729	-84.4
8.73	-82.5
8.731	-79.7
8.732	-76.2
8.733	-72.4
8.734	-68.5
8.735	-64.9
8.736	-61.8
8.737	-59.7
8.738	-58.6
8.739	-58.7
8.74	-59.8
8.741	-61.9
8.742	-64.7
8.743	-68.1
8.744	-71.6
8.745	-74.8
8.746	-77.3
8.747	-79
8.748	-79.6
8.749	-79.1
8.75	-77.5
8.751	-74.9
8.752	-71.8
8.753	-68.5
8.754	-65.6
8.755	-63.9
8.756	-63.8
8.757	-65.8
8.758	-70.1
8.759	-77.3
8.76	-87.5
8.761	-100.7
8.762	-116.2
8.763	-132.9
8.764	-150.5
8.765	-168
8.766	-184.3
8.767	-198
8.768	-206.8
8.769	-210.4
8.77	-207.7
8.771	-197.7
8.772	-179.6
8.773	-152.3
8.774	-116.5
8.775	-72.4
8.776	-20.6
8.777	38
8.778	102.7
8.779	171.5
8.78	243
8.781	315.4
8.782	387.4
8.783	457.1
8.784	522.5
8.785	582.8
8.786	637
8.787	683.9
8.788	722.6
8.789	752.3
8.79	773.5
8.791	786.4
8.792	791.1
8.793	787.4
8.794	775.6
8.795	757.2
8.796	733
8.797	703.6
8.798	669
8.799	630.2
8.8	588.2
8.801	544.1
8.802	498.3
8.803	451.1
8.804	403.4
8.805	355.9
8.806	309.4
8.807	264.4
8.808	221
8.809	180.5
8.81	143
8.811	108.8
8.812	78.3
8.813	51.5
8.814	29.4
8.815	11.5
8.816	-2.5
8.817	-12.8
8.818	-19.7
8.819	-22.9
8.82	-23.3
8.821	-21.8
8.822	-18.7
8.823	-14.8
8.824	-9.9
8.825	-5.1
8.826	-0.8
8.827	2.6
8.828	4.6
8.829	5.7
8.83	5.5
8.831	3.8
8.832	0.8
8.833	-3.3
8.834	-8.2
8.835	-13.6
8.836	-19.4
8.837	-25.3
8.838	-31
8.839	-36.2
8.84	-40.8
8.841	-44.6
8.842	-47.7
8.843	-50.1
8.844	-51.6
8.845	-52.4
8.846	-52.7
8.847	-52.6
8.848	-52.2
8.849	-51.6
8.85	-51.1
8.851	-50.6
8.852	-50.4
8.853	-50.4
8.854	-50.7
8.855	-51.2
8.856	-51.9
8.857	-52.7
8.858	-53.6
8.859	-54.4
8.86	-55
8.861	-55.4
8.862	-55.5
8.863	-55.1
8.864	-54.3
8.865	-53.2
8.866	-51.6
8.867	-49.7
8.868	-47.5
8.869	-45.3
8.87	-43
8.871	-40.9
8.872	-39
8.873	-37.4
8.874	-36.3
8.875	-35.7
8.876	-35.6
8.877	-36
8.878	-36.9
8.879	-38.2
8.88	-39.8
8.881	-41.5
8.882	-43.3
8.883	-45
8.884	-46.4
8.885	-47.5
8.886	-48.2
8.887	-48.4
8.888	-47.9
8.889	-47
8.89	-45.5
8.891	-43.6
8.892	-41.3
8.893	-38.7
8.894	-36
8.895	-33.2
8.896	-30.5
8.897	-27.9
8.898	-25.6
8.899	-23.5
8.9	-21.8
8.901	-20.4
8.902	-19.3
8.903	-18.5
8.904	-17.9
8.905	-17.5
8.906	-17.2
8.907	-16.9
8.908	-16.6
8.909	-16.4
8.91	-16
8.911	-15.6
8.912	-15.1
8.913	-14.4
8.914	-13.8
8.915	-13
8.916	-12.3
8.917	-11.5
8.918	-10.6
8.919	-9.8
8.92	-9
8.921	-8.2
8.922	-7.4
8.923	-6.5
8.924	-5.7
8.925	-4.8
8.926	-3.9
8.927	-2.9
8.928	-1.9
8.929	-0.8
8.93	0.2
8.931	1.3
8.932	2.4
8.933	3.6
8.934	4.8
8.935	6
8.936	7.2
8.937	8.5
8.938	10
8.939	11.5
8.94	13.2
8.941	15
8.942	17
8.943	19.2
8.944	21.4
8.945	23.7
8.946	26.1
8.947	28.5
8.948	30.8
8.949	32.9
8.95	34.9
8.951	36.6
8.952	38
8.953	39.2
8.954	40.1
8.955	40.7
8.956	41.2
8.957	41.5
8.958	41.9
8.959	42.3
8.96	42.9
8.961	43.7
8.962	44.8
8.963	46.3
8.964	48.2
8.965	50.4
8.966	53
8.967	55.8
8.968	58.9
8.969	62.1
8.97	65.2
8.971	68.3
8.972	71.2
8.973	74
8.974	76.6
8.975	78.9
8.976	80.9
8.977	82.9
8.978	84.8
8.979	86.7
8.98	88.7
8.981	90.8
8.982	93.2
8.983	95.9
8.984	98.8
8.985	102
8.986	105.4
8.987	108.9
8.988	112.6
8.989	116.1
8.99	119.5
8.991	122.6
8.992	125.3
8.993	127.7
8.994	129.6
8.995	131.1
8.996	132.1
8.997	133
8.998	133.7
8.999	134.2
9	134.9
9.001	135.8
9.002	137
9.003	138.6
9.004	140.7
9.005	143.3
9.006	146.3
9.007	149.8
9.008	153.6
9.009	157.7
9.01	161.8
9.011	165.9
9.012	169.9
9.013	173.8
9.014	177.4
9.015	180.7
9.016	183.8
9.017	186.7
9.018	189.4
9.019	192
9.02	194.6
9.021	197.3
9.022	200.1
9.023	203.1
9.024	206.3
9.025	209.6
9.026	213.1
9.027	216.6
9.028	220.1
9.029	223.3
9.03	226.2
9.031	228.8
9.032	230.9
9.033	232.4
9.034	233.4
9.035	233.8
9.036	233.7
9.037	233.3
9.038	232.5
9.039	231.4
9.04	230.2
9.041	228.9
9.042	227.7
9.043	226.4
9.044	225.1
9.045	223.7
9.046	222.2
9.047	220.5
9.048	218.2
9.049	215.4
9.05	212
9.051	207.8
9.052	202.8
9.053	196.8
9.054	190.1
9.055	182.8
9.056	174.9
9.057	166.7
9.058	158.2
9.059	149.9
9.06	141.9
9.061	134.4
9.062	127.4
9.063	121.1
9.064	115.6
9.065	110.9
9.066	106.7
9.067	102.9
9.068	99.3
9.069	95.8
9.07	92.2
9.071	88.2
9.072	83.6
9.073	78.3
9.074	72.4
9.075	65.9
9.076	58.9
9.077	51.4
9.078	43.6
9.079	35.9
9.08	28.5
9.081	21.6
9.082	15.4
9.083	9.9
9.084	5.3
9.085	1.7
9.086	-1.2
9.087	-3.4
9.088	-5.3
9.089	-6.8
9.09	-8.3
9.091	-10.1
9.092	-12.4
9.093	-15.4
9.094	-19.1
9.095	-23.5
9.096	-28.6
9.097	-34.3
9.098	-40.4
9.099	-46.5
9.1	-52.4
9.101	-57.9
9.102	-62.7
9.103	-66.5
9.104	-69.2
9.105	-70.8
9.106	-71.2
9.107	-70.5
9.108	-69.1
9.109	-67
9.11	-64.5
9.111	-62.1
9.112	-59.9
9.113	-58.4
9.114	-57.5
9.115	-57.6
9.116	-58.8
9.117	-60.9
9.118	-63.9
9.119	-67.5
9.12	-71.7
9.121	-76
9.122	-80.3
9.123	-84.2
9.124	-87.4
9.125	-89.9
9.126	-91.5
9.127	-92.1
9.128	-91.8
9.129	-90.7
9.13	-88.9
9.131	-86.7
9.132	-84.2
9.133	-81.8
9.134	-79.6
9.135	-77.9
9.136	-76.8
9.137	-76.2
9.138	-76.4
9.139	-77.1
9.14	-78.3
9.141	-79.9
9.142	-81.6
9.143	-83.4
9.144	-84.9
9.145	-86.1
9.146	-86.9
9.147	-87.1
9.148	-86.8
9.149	-86.1
9.15	-84.9
9.151	-83.5
9.152	-81.9
9.153	-80.3
9.154	-78.9
9.155	-77.7
9.156	-76.8
9.157	-76.4
9.158	-76.4
9.159	-76.7
9.16	-77.4
9.161	-78.3
9.162	-79.3
9.163	-80.3
9.164	-81.1
9.165	-81.8
9.166	-82.1
9.167	-82.1
9.168	-81.8
9.169	-81.2
9.17	-80.4
9.171	-79.4
9.172	-78.3
9.173	-77.3
9.174	-76.3
9.175	-75.6
9.176	-75
9.177	-74.7
9.178	-74.5
9.179	-74.5
9.18	-74.6
9.181	-74.7
9.182	-74.7
9.183	-74.6
9.184	-74.3
9.185	-73.7
9.186	-73
9.187	-72
9.188	-70.9
9.189	-69.7
9.19	-68.6
9.191	-67.6
9.192	-67
9.193	-66.6
9.194	-66.7
9.195	-67.3
9.196	-68.4
9.197	-69.9
9.198	-71.7
9.199	-73.8
9.2	-76.1
9.201	-78.3
9.202	-80.4
9.203	-82.2
9.204	-83.6
9.205	-84.5
9.206	-84.9
9.207	-84.7
9.208	-84
9.209	-82.8
9.21	-81.3
9.211	-79.5
9.212	-77.5
9.213	-75.6
9.214	-73.7
9.215	-71.9
9.216	-70.4
9.217	-69.2
9.218	-68.2
9.219	-67.4
9.22	-66.9
9.221	-66.5
9.222	-66.2
9.223	-65.9
9.224	-65.5
9.225	-65.1
9.226	-64.6
9.227	-64.1
9.228	-63.5
9.229	-62.9
9.23	-62.3
9.231	-61.8
9.232	-61.5
9.233	-61.3
9.234	-61.3
9.235	-61.6
9.236	-62
9.237	-62.6
9.238	-63.2
9.239	-63.9
9.24	-64.5
9.241	-65
9.242	-65.4
9.243	-65.4
9.244	-65.3
9.245	-64.8
9.246	-64.2
9.247	-63.4
9.248	-62.5
9.249	-61.6
9.25	-60.8
9.251	-60.1
9.252	-59.7
9.253	-59.5
9.254	-59.6
9.255	-60
9.256	-60.5
9.257	-61.2
9.258	-61.9
9.259	-62.5
9.26	-62.9
9.261	-62.9
9.262	-62.6
9.263	-61.8
9.264	-60.6
9.265	-58.9
9.266	-56.8
9.267	-54.5
9.268	-52
9.269	-49.5
9.27	-47.1
9.271	-45
9.272	-43.4
9.273	-42.2
9.274	-41.6
9.275	-41.7
9.276	-42.2
9.277	-43.3
9.278	-44.7
9.279	-46.4
9.28	-48.2
9.281	-49.9
9.282	-51.4
9.283	-52.6
9.284	-53.3
9.285	-53.7
9.286	-53.6
9.287	-53.1
9.288	-52.2
9.289	-51.2
9.29	-50
9.291	-48.9
9.292	-47.9
9.293	-47.2
9.294	-46.8
9.295	-46.8
9.296	-47.2
9.297	-47.8
9.298	-48.8
9.299	-49.9
9.3	-51.1
9.301	-52.2
9.302	-53.2
9.303	-53.9
9.304	-54.3
9.305	-54.4
9.306	-54.1
9.307	-53.5
9.308	-52.7
9.309	-51.8
9.31	-50.9
9.311	-50.1
9.312	-49.5
9.313	-49.2
9.314	-49.2
9.315	-49.7
9.316	-50.5
9.317	-51.7
9.318	-53.1
9.319	-54.6
9.32	-56.2
9.321	-57.7
9.322	-59.1
9.323	-60.2
9.324	-61
9.325	-61.4
9.326	-61.5
9.327	-61.4
9.328	-61
9.329	-60.4
9.33	-59.8
9.331	-59.2
9.332	-58.7
9.333	-58.4
9.334	-58.3
9.335	-58.3
9.336	-58.5
9.337	-58.7
9.338	-58.9
9.339	-58.9
9.34	-58.7
9.341	-58.2
9.342	-57.3
9.343	-56
9.344	-54.4
9.345	-52.3
9.346	-50.1
9.347	-47.7
9.348	-45.4
9.349	-43.4
9.35	-41.7
9.351	-40.6
9.352	-40.2
9.353	-40.5
9.354	-41.7
9.355	-43.6
9.356	-46.1
9.357	-49.1
9.358	-52.5
9.359	-55.9
9.36	-59.2
9.361	-62.2
9.362	-64.6
9.363	-66.3
9.364	-67.2
9.365	-67.4
9.366	-66.7
9.367	-65.3
9.368	-63.4
9.369	-61.2
9.37	-58.9
9.371	-56.7
9.372	-54.8
9.373	-53.3
9.374	-52.5
9.375	-52.4
9.376	-53
9.377	-54.3
9.378	-56
9.379	-58.1
9.38	-60.4
9.381	-62.6
9.382	-64.5
9.383	-66
9.384	-66.9
9.385	-67.2
9.386	-66.7
9.387	-65.5
9.388	-63.7
9.389	-61.4
9.39	-58.9
9.391	-56.2
9.392	-53.6
9.393	-51.3
9.394	-49.4
9.395	-48
9.396	-47.2
9.397	-46.9
9.398	-47.2
9.399	-47.9
9.4	-48.9
9.401	-50
9.402	-51.2
9.403	-52.2
9.404	-53
9.405	-53.6
9.406	-53.8
9.407	-53.7
9.408	-53.4
9.409	-52.9
9.41	-52.4
9.411	-52
9.412	-51.9
9.413	-52
9.414	-52.4
9.415	-53.2
9.416	-54.3
9.417	-55.7
9.418	-57.1
9.419	-58.4
9.42	-59.4
9.421	-60
9.422	-59.9
9.423	-59.1
9.424	-57.5
9.425	-55.1
9.426	-51.9
9.427	-48
9.428	-43.7
9.429	-39.2
9.43	-34.7
9.431	-30.6
9.432	-27
9.433	-24.2
9.434	-22.4
9.435	-21.7
9.436	-22.1
9.437	-23.6
9.438	-26
9.439	-29.1
9.44	-32.7
9.441	-36.4
9.442	-40
9.443	-43.2
9.444	-45.7
9.445	-47.2
9.446	-47.8
9.447	-47.2
9.448	-45.4
9.449	-42.6
9.45	-39
9.451	-34.6
9.452	-29.7
9.453	-24.4
9.454	-19.1
9.455	-13.9
9.456	-9
9.457	-4.5
9.458	-0.3
9.459	3.4
9.46	6.8
9.461	9.9
9.462	12.8
9.463	15.7
9.464	18.5
9.465	21.4
9.466	24.4
9.467	27.5
9.468	30.8
9.469	33.9
9.47	36.9
9.471	39.6
9.472	42
9.473	43.9
9.474	45.1
9.475	45.7
9.476	45.6
9.477	44.8
9.478	43.4
9.479	41.5
9.48	39.3
9.481	37
9.482	34.7
9.483	32.4
9.484	30.4
9.485	28.9
9.486	27.7
9.487	26.9
9.488	26.4
9.489	26.2
9.49	26
9.491	25.8
9.492	25.3
9.493	24.4
9.494	23
9.495	20.9
9.496	18.1
9.497	14.6
9.498	10.4
9.499	5.7
9.5	0.6
9.501	-4.7
9.502	-10.2
9.503	-15.5
9.504	-20.4
9.505	-24.9
9.506	-28.8
9.507	-32.1
9.508	-34.8
9.509	-36.9
9.51	-38.4
9.511	-39.6
9.512	-40.5
9.513	-41.3
9.514	-42.1
9.515	-43.1
9.516	-44.3
9.517	-45.9
9.518	-47.9
9.519	-50.2
9.52	-52.9
9.521	-55.8
9.522	-58.8
9.523	-61.9
9.524	-64.9
9.525	-67.6
9.526	-70.1
9.527	-72.1
9.528	-73.7
9.529	-74.7
9.53	-75.1
9.531	-75.1
9.532	-74.6
9.533	-73.7
9.534	-72.4
9.535	-70.9
9.536	-69.2
9.537	-67.5
9.538	-65.8
9.539	-64.1
9.54	-62.6
9.541	-61.3
9.542	-60.3
9.543	-59.6
9.544	-59.3
9.545	-59.2
9.546	-59.5
9.547	-60.1
9.548	-61
9.549	-62.1
9.55	-63.4
9.551	-64.8
9.552	-66.3
9.553	-67.7
9.554	-69.1
9.555	-70.3
9.556	-71.3
9.557	-72.1
9.558	-72.7
9.559	-73.1
9.56	-73.2
9.561	-73.3
9.562	-73.2
9.563	-73.2
9.564	-73.2
9.565	-73.2
9.566	-73.3
9.567	-73.5
9.568	-73.9
9.569	-74.3
9.57	-74.7
9.571	-74.9
9.572	-75
9.573	-75
9.574	-74.8
9.575	-74.3
9.576	-73.7
9.577	-73
9.578	-72.5
9.579	-72.5
9.58	-73.3
9.581	-75.1
9.582	-78.3
9.583	-83
9.584	-89.6
9.585	-98.3
9.586	-109.2
9.587	-121.9
9.588	-135.6
9.589	-150.3
9.59	-165.2
9.591	-179.6
9.592	-192.2
9.593	-201
9.594	-205.7
9.595	-205.1
9.596	-198.3
9.597	-184
9.598	-161
9.599	-129.5
9.6	-89.6
9.601	-41.5
9.602	14.2
9.603	77.1
9.604	145.2
9.605	217
9.606	291
9.607	365.3
9.608	438.1
9.609	507.1
9.61	571.1
9.611	628.8
9.612	679
9.613	720.4
9.614	752.2
9.615	774.8
9.616	788.6
9.617	793.7
9.618	790.1
9.619	778.4
9.62	760.1
9.621	736.5
9.622	708
9.623	675.1
9.624	638.5
9.625	599.4
9.626	558.5
9.627	516.2
9.628	472.3
9.629	427.7
9.63	382.7
9.631	337.8
9.632	293.2
9.633	249.2
9.634	206.8
9.635	166.3
9.636	128.1
9.637	92.9
9.638	61
9.639	33.6
9.64	10.7
9.641	-7.8
9.642	-21.6
9.643	-31
9.644	-35.4
9.645	-35.9
9.646	-33.4
9.647	-28.4
9.648	-21.8
9.649	-13.9
9.65	-5.9
9.651	1.3
9.652	7
9.653	10.7
9.654	12.5
9.655	12.1
9.656	9.3
9.657	4.5
9.658	-2.1
9.659	-9.7
9.66	-18
9.661	-26.4
9.662	-34.4
9.663	-41.6
9.664	-47.7
9.665	-52.3
9.666	-55.4
9.667	-57.1
9.668	-57.6
9.669	-57.1
9.67	-55.9
9.671	-54.3
9.672	-52.8
9.673	-51.6
9.674	-50.9
9.675	-50.9
9.676	-51.6
9.677	-53.2
9.678	-55.3
9.679	-57.8
9.68	-60.4
9.681	-63
9.682	-65.2
9.683	-66.8
9.684	-67.6
9.685	-67.6
9.686	-66.7
9.687	-65
9.688	-62.6
9.689	-59.7
9.69	-56.4
9.691	-53.2
9.692	-50.2
9.693	-47.6
9.694	-45.6
9.695	-44.4
9.696	-43.9
9.697	-44.2
9.698	-45.1
9.699	-46.5
9.7	-48.3
9.701	-50.3
9.702	-52.2
9.703	-53.9
9.704	-55.3
9.705	-56.2
9.706	-56.7
9.707	-56.7
9.708	-56.2
9.709	-55.3
9.71	-54.2
9.711	-52.9
9.712	-51.5
9.713	-50.2
9.714	-48.9
9.715	-47.8
9.716	-46.8
9.717	-45.8
9.718	-44.7
9.719	-43.6
9.72	-42.2
9.721	-40.6
9.722	-38.7
9.723	-36.5
9.724	-33.9
9.725	-31.1
9.726	-28.2
9.727	-25.2
9.728	-22.4
9.729	-20
9.73	-17.9
9.731	-16.5
9.732	-15.6
9.733	-15.4
9.734	-15.9
9.735	-16.8
9.736	-18.2
9.737	-19.8
9.738	-21.3
9.739	-22.7
9.74	-23.6
9.741	-23.9
9.742	-23.5
9.743	-22.2
9.744	-20.2
9.745	-17.5
9.746	-14.2
9.747	-10.5
9.748	-6.6
9.749	-2.9
9.75	0.5
9.751	3.4
9.752	5.5
9.753	6.8
9.754	7.2
9.755	6.7
9.756	5.5
9.757	3.7
9.758	1.7
9.759	-0.6
9.76	-2.6
9.761	-4.3
9.762	-5.3
9.763	-5.5
9.764	-4.8
9.765	-3.3
9.766	-1
9.767	2
9.768	5.6
9.769	9.5
9.77	13.4
9.771	17.1
9.772	20.5
9.773	23.4
9.774	25.7
9.775	27.4
9.776	28.5
9.777	29.1
9.778	29.4
9.779	29.6
9.78	29.9
9.781	30.4
9.782	31.4
9.783	33
9.784	35.1
9.785	37.9
9.786	41.2
9.787	44.9
9.788	48.8
9.789	52.7
9.79	56.3
9.791	59.4
9.792	61.9
9.793	63.6
9.794	64.4
9.795	64.4
9.796	63.5
9.797	62.1
9.798	60.3
9.799	58.4
9.8	56.6
9.801	55.3
9.802	54.8
9.803	55.2
9.804	56.6
9.805	59.1
9.806	62.7
9.807	67.3
9.808	72.7
9.809	78.7
9.81	84.8
9.811	90.9
9.812	96.7
9.813	102.1
9.814	106.6
9.815	110.2
9.816	113
9.817	114.9
9.818	116.2
9.819	116.9
9.82	117.4
9.821	117.8
9.822	118.6
9.823	119.8
9.824	121.7
9.825	124.4
9.826	128
9.827	132.3
9.828	137.5
9.829	143.1
9.83	148.9
9.831	154.9
9.832	160.6
9.833	165.9
9.834	170.5
9.835	174.3
9.836	177.1
9.837	179.1
9.838	180.3
9.839	180.8
9.84	180.7
9.841	180.4
9.842	180.2
9.843	180.2
9.844	180.6
9.845	181.6
9.846	183.4
9.847	186.1
9.848	189.5
9.849	193.5
9.85	198.1
9.851	203.1
9.852	208.1
9.853	213.1
9.854	217.6
9.855	221.6
9.856	224.9
9.857	227.4
9.858	229
9.859	229.8
9.86	229.8
9.861	229.2
9.862	228.1
9.863	226.6
9.864	224.9
9.865	223.2
9.866	221.6
9.867	220.1
9.868	218.8
9.869	217.6
9.87	216.6
9.871	215.7
9.872	214.7
9.873	213.4
9.874	211.8
9.875	209.7
9.876	207.2
9.877	204
9.878	200.1
9.879	195.6
9.88	190.4
9.881	184.8
9.882	178.7
9.883	172.1
9.884	165.3
9.885	158.4
9.886	151.4
9.887	144.5
9.888	137.5
9.889	130.7
9.89	124.1
9.891	117.7
9.892	111.4
9.893	105
9.894	98.8
9.895	92.6
9.896	86.5
9.897	80.3
9.898	73.9
9.899	67.7
9.9	61.4
9.901	55.1
9.902	48.8
9.903	42.5
9.904	36.3
9.905	30.2
9.906	24.3
9.907	18.4
9.908	12.5
9.909	7
9.91	1.7
9.911	-3.5
9.912	-8.4
9.913	-13.2
9.914	-17.6
9.915	-21.6
9.916	-25.3
9.917	-28.7
9.918	-31.7
9.919	-34.2
9.92	-36.3
9.921	-38
9.922	-39.6
9.923	-40.9
9.924	-42
9.925	-43.1
9.926	-44.4
9.927	-45.8
9.928	-47.6
9.929	-49.7
9.93	-52.3
9.931	-55.2
9.932	-58.6
9.933	-62.3
9.934	-66.2
9.935	-70.1
9.936	-74
9.937	-77.6
9.938	-80.9
9.939	-83.5
9.94	-85.4
9.941	-86.5
9.942	-86.8
9.943	-86.4
9.944	-85.2
9.945	-83.4
9.946	-81.3
9.947	-78.9
9.948	-76.5
9.949	-74.2
9.95	-72.4
9.951	-71.1
9.952	-70.5
9.953	-70.6
9.954	-71.4
9.955	-72.9
9.956	-74.8
9.957	-77.2
9.958	-79.8
9.959	-82.3
9.96	-84.6
9.961	-86.5
9.962	-87.9
9.963	-88.7
9.964	-88.7
9.965	-88.1
9.966	-87
9.967	-85.3
9.968	-83.3
9.969	-81.2
9.97	-79.1
9.971	-77.3
9.972	-75.8
9.973	-74.9
9.974	-74.6
9.975	-75
9.976	-75.9
9.977	-77.3
9.978	-79.1
9.979	-81.2
9.98	-83.3
9.981	-85.4
9.982	-87.2
9.983	-88.7
9.984	-89.6
9.985	-90
9.986	-89.9
9.987	-89.3
9.988	-88.3
9.989	-87
9.99	-85.5
9.991	-84
9.992	-82.6
9.993	-81.4
9.994	-80.6
9.995	-80.2
9.996	-80.2
9.997	-80.6
9.998	-81.4
9.999	-82.5
10	-83.8
10.001	-85.2
10.002	-86.5
10.003	-87.8
10.004	-88.8
10.005	-89.5
10.006	-89.9
10.007	-90
10.008	-89.7
10.009	-89.1
10.01	-88.3
10.011	-87.2
10.012	-86
10.013	-84.8
10.014	-83.5
10.015	-82.3
10.016	-81.1
10.017	-80
10.018	-79
10.019	-78.1
10.02	-77.4
10.021	-76.8
10.022	-76.4
10.023	-76.1
10.024	-76
10.025	-76.2
10.026	-76.5
10.027	-77.2
10.028	-78
10.029	-79.1
10.03	-80.5
10.031	-81.9
10.032	-83.5
10.033	-85.1
10.034	-86.6
10.035	-87.8
10.036	-88.7
10.037	-89.1
10.038	-89
10.039	-88.2
10.04	-86.8
10.041	-84.7
10.042	-82
10.043	-78.9
10.044	-75.4
10.045	-71.8
10.046	-68.2
10.047	-64.9
10.048	-62
10.049	-59.8
10.05	-58.3
10.051	-57.7
10.052	-57.9
10.053	-58.9
10.054	-60.6
10.055	-62.9
10.056	-65.5
10.057	-68.1
10.058	-70.6
10.059	-72.8
10.06	-74.3
10.061	-75.1
10.062	-75
10.063	-74
10.064	-72.2
10.065	-69.7
10.066	-66.7
10.067	-63.3
10.068	-59.9
10.069	-56.7
10.07	-54.1
10.071	-52.1
10.072	-51
10.073	-50.8
10.074	-51.7
10.075	-53.5
10.076	-56.2
10.077	-59.5
10.078	-63.2
10.079	-67.1
10.08	-70.8
10.081	-74
10.082	-76.6
10.083	-78.3
10.084	-79.1
10.085	-78.8
10.086	-77.6
10.087	-75.4
10.088	-72.5
10.089	-69.1
10.09	-65.5
10.091	-61.8
10.092	-58.4
10.093	-55.4
10.094	-53.1
10.095	-51.6
10.096	-50.8
10.097	-50.9
10.098	-51.7
10.099	-53.2
10.1	-55.1
10.101	-57.4
10.102	-59.9
10.103	-62.2
10.104	-64.4
10.105	-66.3
10.106	-67.8
10.107	-68.8
10.108	-69.3
10.109	-69.4
10.11	-69.2
10.111	-68.7
10.112	-68
10.113	-67.2
10.114	-66.4
10.115	-65.6
10.116	-65
10.117	-64.4
10.118	-64
10.119	-63.7
10.12	-63.4
10.121	-63.1
10.122	-62.7
10.123	-62.3
10.124	-61.7
10.125	-61.1
10.126	-60.4
10.127	-59.6
10.128	-58.8
10.129	-58
10.13	-57.3
10.131	-56.9
10.132	-56.6
10.133	-56.7
10.134	-57
10.135	-57.6
10.136	-58.4
10.137	-59.4
10.138	-60.6
10.139	-61.8
10.14	-62.9
10.141	-63.9
10.142	-64.8
10.143	-65.3
10.144	-65.6
10.145	-65.6
10.146	-65.3
10.147	-64.8
10.148	-64.1
10.149	-63.2
10.15	-62.3
10.151	-61.4
10.152	-60.6
10.153	-59.9
10.154	-59.4
10.155	-59
10.156	-58.8
10.157	-58.8
10.158	-58.9
10.159	-59.1
10.16	-59.3
10.161	-59.6
10.162	-59.9
10.163	-60.2
10.164	-60.5
10.165	-60.9
10.166	-61.2
10.167	-61.7
10.168	-62.2
10.169	-62.8
10.17	-63.6
10.171	-64.5
10.172	-65.5
10.173	-66.5
10.174	-67.5
10.175	-68.5
10.176	-69.3
10.177	-69.9
10.178	-70.1
10.179	-69.9
10.18	-69.3
10.181	-68.3
10.182	-66.8
10.183	-64.9
10.184	-62.8
10.185	-60.4
10.186	-58
10.187	-55.6
10.188	-53.4
10.189	-51.4
10.19	-49.9
10.191	-48.9
10.192	-48.3
10.193	-48.2
10.194	-48.6
10.195	-49.4
10.196	-50.4
10.197	-51.6
10.198	-52.8
10.199	-53.9
10.2	-54.8
10.201	-55.5
10.202	-55.8
10.203	-55.8
10.204	-55.5
10.205	-54.9
10.206	-54.1
10.207	-53.3
10.208	-52.4
10.209	-51.6
10.21	-51.1
10.211	-50.7
10.212	-50.7
10.213	-50.9
10.214	-51.4
10.215	-52.1
10.216	-52.9
10.217	-53.8
10.218	-54.6
10.219	-55.2
10.22	-55.7
10.221	-56
10.222	-56
10.223	-55.7
10.224	-55.3
10.225	-54.9
10.226	-54.4
10.227	-54
10.228	-53.9
10.229	-54
10.23	-54.6
10.231	-55.5
10.232	-56.9
10.233	-58.6
10.234	-60.5
10.235	-62.6
10.236	-64.7
10.237	-66.5
10.238	-68.1
10.239	-69.1
10.24	-69.5
10.241	-69.3
10.242	-68.3
10.243	-66.5
10.244	-64.2
10.245	-61.2
10.246	-57.9
10.247	-54.4
10.248	-50.9
10.249	-47.6
10.25	-44.7
10.251	-42.3
10.252	-40.6
10.253	-39.6
10.254	-39.5
10.255	-40
10.256	-41.2
10.257	-42.9
10.258	-45
10.259	-47.3
10.26	-49.7
10.261	-51.9
10.262	-54
10.263	-55.6
10.264	-56.8
10.265	-57.5
10.266	-57.7
10.267	-57.5
10.268	-56.8
10.269	-55.8
10.27	-54.6
10.271	-53.2
10.272	-51.7
10.273	-50.1
10.274	-48.6
10.275	-47.1
10.276	-45.8
10.277	-44.5
10.278	-43.3
10.279	-42.2
10.28	-41.1
10.281	-40.2
10.282	-39.3
10.283	-38.4
10.284	-37.7
10.285	-37.1
10.286	-36.7
10.287	-36.5
10.288	-36.5
10.289	-36.7
10.29	-37.2
10.291	-37.9
10.292	-38.7
10.293	-39.5
10.294	-40.3
10.295	-41
10.296	-41.6
10.297	-41.7
10.298	-41.5
10.299	-40.7
10.3	-39.4
10.301	-37.6
10.302	-35.2
10.303	-32.3
10.304	-28.9
10.305	-25.2
10.306	-21.3
10.307	-17.3
10.308	-13.1
10.309	-9.1
10.31	-5.2
10.311	-1.5
10.312	2.1
10.313	5.5
10.314	8.8
10.315	11.9
10.316	15.1
10.317	18.3
10.318	21.7
10.319	25.1
10.32	28.6
10.321	32.3
10.322	36
10.323	39.6
10.324	43
10.325	46
10.326	48.6
10.327	50.7
10.328	52
10.329	52.4
10.33	52
10.331	50.8
10.332	48.8
10.333	46.1
10.334	42.8
10.335	39.2
10.336	35.4
10.337	31.6
10.338	27.9
10.339	24.7
10.34	21.9
10.341	19.7
10.342	18.1
10.343	17.1
10.344	16.5
10.345	16.3
10.346	16.2
10.347	16.1
10.348	15.8
10.349	15.1
10.35	13.8
10.351	11.9
10.352	9.2
10.353	5.7
10.354	1.6
10.355	-3.1
10.356	-8.2
10.357	-13.6
10.358	-19.1
10.359	-24.4
10.36	-29.3
10.361	-33.8
10.362	-37.6
10.363	-40.7
10.364	-43.1
10.365	-44.8
10.366	-45.9
10.367	-46.5
10.368	-46.9
10.369	-47.2
10.37	-47.5
10.371	-48.1
10.372	-49
10.373	-50.5
10.374	-52.3
10.375	-54.7
10.376	-57.6
10.377	-60.8
10.378	-64.2
10.379	-67.5
10.38	-70.7
10.381	-73.6
10.382	-75.9
10.383	-77.7
10.384	-78.6
10.385	-78.8
10.386	-78.3
10.387	-77.1
10.388	-75.4
10.389	-73.2
10.39	-70.8
10.391	-68.3
10.392	-66.1
10.393	-64.1
