8.402509999999999764e+02	8.970000000000000195e-01
8.409189999999999827e+02	8.569999999999999840e-01
8.416009999999999991e+02	8.509999999999999787e-01
8.423010000000000446e+02	8.060000000000000497e-01
8.430249999999999773e+02	8.249999999999999556e-01
8.437659999999999627e+02	8.519999999999999796e-01
8.444629999999999654e+02	7.890000000000000346e-01
8.451700000000000728e+02	8.030000000000000471e-01
8.458709999999999809e+02	7.720000000000000195e-01
8.465850000000000364e+02	9.909999999999999920e-01
8.472720000000000482e+02	8.629999999999999893e-01
8.479640000000000555e+02	9.030000000000000249e-01
8.486180000000000518e+02	9.579999999999999627e-01
8.492409999999999854e+02	8.469999999999999751e-01
8.498600000000000136e+02	7.409999999999999920e-01
8.505020000000000664e+02	7.620000000000000107e-01
8.511810000000000400e+02	7.449999999999999956e-01
8.518619999999999663e+02	8.699999999999999956e-01
8.526180000000000518e+02	8.699999999999999956e-01
8.533750000000000000e+02	8.619999999999999885e-01
8.541019999999999754e+02	8.609999999999999876e-01
8.547939999999999827e+02	8.499999999999999778e-01
8.555030000000000427e+02	7.730000000000000204e-01
8.561990000000000691e+02	8.269999999999999574e-01
8.568770000000000664e+02	9.110000000000000320e-01
8.575299999999999727e+02	8.229999999999999538e-01
8.581739999999999782e+02	8.489999999999999769e-01
8.588190000000000737e+02	7.640000000000000124e-01
8.594440000000000737e+02	8.569999999999999840e-01
8.600720000000000027e+02	7.950000000000000400e-01
8.607419999999999618e+02	8.449999999999999734e-01
8.614239999999999782e+02	7.650000000000000133e-01
8.621530000000000200e+02	8.329999999999999627e-01
8.628820000000000618e+02	7.970000000000000417e-01
8.635890000000000555e+02	9.240000000000000435e-01
8.642580000000000382e+02	8.399999999999999689e-01
8.649149999999999636e+02	8.369999999999999662e-01
8.655800000000000409e+02	7.900000000000000355e-01
8.662630000000000337e+02	8.269999999999999574e-01
8.669440000000000737e+02	8.199999999999999512e-01
8.676430000000000291e+02	8.760000000000000009e-01
8.684420000000000073e+02	8.179999999999999494e-01
8.692190000000000509e+02	8.790000000000000036e-01
8.699610000000000127e+02	9.230000000000000426e-01
8.706929999999999836e+02	8.750000000000000000e-01
8.714310000000000400e+02	8.219999999999999529e-01
8.722150000000000318e+02	8.319999999999999618e-01
8.730819999999999936e+02	9.260000000000000453e-01
8.739130000000000109e+02	9.110000000000000320e-01
8.747599999999999909e+02	9.180000000000000382e-01
8.755950000000000273e+02	8.469999999999999751e-01
8.764070000000000391e+02	8.229999999999999538e-01
8.772300000000000182e+02	9.000000000000000222e-01
8.780280000000000200e+02	8.509999999999999787e-01
8.788240000000000691e+02	9.389999999999999458e-01
8.795900000000000318e+02	9.389999999999999458e-01
8.803250000000000455e+02	8.149999999999999467e-01
8.810890000000000555e+02	8.830000000000000071e-01
8.818509999999999991e+02	9.150000000000000355e-01
8.826159999999999854e+02	7.920000000000000373e-01
8.833410000000000082e+02	8.000000000000000444e-01
8.840260000000000673e+02	9.559999999999999609e-01
8.847200000000000273e+02	8.100000000000000533e-01
8.854819999999999709e+02	8.739999999999999991e-01
8.862770000000000437e+02	9.100000000000000311e-01
8.870760000000000218e+02	8.760000000000000009e-01
8.878770000000000664e+02	8.549999999999999822e-01
8.886870000000000118e+02	8.970000000000000195e-01
8.894940000000000282e+02	8.459999999999999742e-01
8.902920000000000300e+02	8.970000000000000195e-01
8.910860000000000127e+02	8.619999999999999885e-01
8.919170000000000300e+02	8.349999999999999645e-01
8.927720000000000482e+02	8.569999999999999840e-01
8.936240000000000236e+02	8.149999999999999467e-01
8.944619999999999891e+02	8.990000000000000213e-01
8.952680000000000291e+02	7.209999999999999742e-01
8.960990000000000464e+02	8.379999999999999671e-01
8.969120000000000346e+02	1.014999999999999902e+00
8.977140000000000555e+02	8.249999999999999556e-01
8.985370000000000346e+02	8.880000000000000115e-01
8.993720000000000709e+02	8.619999999999999885e-01
9.002029999999999745e+02	7.580000000000000071e-01
9.010520000000000209e+02	9.320000000000000506e-01
9.018680000000000518e+02	9.539999999999999591e-01
9.027040000000000646e+02	8.249999999999999556e-01
9.035030000000000427e+02	8.329999999999999627e-01
9.043010000000000446e+02	9.010000000000000231e-01
9.051059999999999945e+02	8.539999999999999813e-01
9.058830000000000382e+02	8.709999999999999964e-01
9.066510000000000673e+02	8.459999999999999742e-01
9.074500000000000455e+02	9.699999999999999734e-01
9.082609999999999673e+02	8.800000000000000044e-01
9.091009999999999991e+02	8.870000000000000107e-01
9.099099999999999682e+02	9.000000000000000222e-01
9.106739999999999782e+02	8.760000000000000009e-01
9.114479999999999791e+02	9.030000000000000249e-01
9.122230000000000700e+02	7.940000000000000391e-01
9.129859999999999900e+02	9.479999999999999538e-01
9.137250000000000227e+02	8.229999999999999538e-01
9.144800000000000182e+02	8.309999999999999609e-01
9.152160000000000082e+02	9.170000000000000373e-01
9.159579999999999700e+02	8.090000000000000524e-01
9.167309999999999945e+02	9.190000000000000391e-01
9.174900000000000091e+02	9.000000000000000222e-01
9.182110000000000127e+02	9.429999999999999494e-01
9.188790000000000191e+02	8.249999999999999556e-01
9.195240000000000009e+02	6.550000000000000266e-01
9.201670000000000300e+02	3.390000000000000235e-01
9.208490000000000464e+02	4.789999999999999813e-01
9.215800000000000409e+02	7.239999999999999769e-01
9.223519999999999754e+02	8.239999999999999547e-01
9.231230000000000473e+02	9.989999999999999991e-01
9.239210000000000491e+02	1.379999999999999893e+00
9.246920000000000073e+02	1.241000000000000103e+00
9.253990000000000009e+02	9.609999999999999654e-01
9.261159999999999854e+02	8.060000000000000497e-01
9.268650000000000091e+02	8.760000000000000009e-01
9.276309999999999718e+02	8.070000000000000506e-01
9.284080000000000155e+02	9.140000000000000346e-01
9.292649999999999864e+02	8.830000000000000071e-01
9.301159999999999854e+02	1.012000000000000011e+00
9.309110000000000582e+02	8.980000000000000204e-01
9.317330000000000609e+02	9.589999999999999636e-01
9.325059999999999718e+02	8.559999999999999831e-01
9.333229999999999791e+02	9.479999999999999538e-01
9.341040000000000418e+02	9.150000000000000355e-01
9.349250000000000682e+02	9.110000000000000320e-01
9.357400000000000091e+02	9.070000000000000284e-01
9.365980000000000700e+02	9.060000000000000275e-01
9.374189999999999827e+02	8.699999999999999956e-01
9.382520000000000664e+02	9.000000000000000222e-01
9.390710000000000264e+02	8.120000000000000551e-01
9.399320000000000164e+02	1.112000000000000099e+00
9.407640000000000100e+02	8.950000000000000178e-01
9.415710000000000264e+02	7.640000000000000124e-01
9.424099999999999682e+02	1.735000000000000098e+00
9.432649999999999864e+02	1.201999999999999957e+00
9.440610000000000355e+02	9.589999999999999636e-01
9.448170000000000073e+02	6.800000000000000488e-01
9.455430000000000064e+02	7.039999999999999591e-01
9.462730000000000246e+02	6.159999999999999920e-01
9.470450000000000728e+02	7.239999999999999769e-01
9.478279999999999745e+02	7.980000000000000426e-01
9.486530000000000200e+02	8.299999999999999600e-01
9.494819999999999709e+02	8.579999999999999849e-01
9.503139999999999645e+02	8.379999999999999671e-01
9.511630000000000109e+02	8.289999999999999591e-01
9.520180000000000291e+02	9.030000000000000249e-01
9.528120000000000118e+02	8.820000000000000062e-01
9.535389999999999873e+02	8.659999999999999920e-01
9.542640000000000100e+02	9.200000000000000400e-01
9.549890000000000327e+02	8.529999999999999805e-01
9.556979999999999791e+02	8.189999999999999503e-01
9.563870000000000573e+02	8.249999999999999556e-01
9.571019999999999754e+02	8.139999999999999458e-01
9.578430000000000746e+02	8.409999999999999698e-01
9.586290000000000191e+02	8.800000000000000044e-01
9.594490000000000691e+02	8.970000000000000195e-01
9.602599999999999909e+02	9.040000000000000258e-01
9.610270000000000437e+02	9.539999999999999591e-01
9.617690000000000055e+02	8.579999999999999849e-01
9.625420000000000300e+02	8.679999999999999938e-01
9.633150000000000546e+02	9.150000000000000355e-01
9.640879999999999654e+02	8.940000000000000169e-01
9.647970000000000255e+02	8.479999999999999760e-01
9.654669999999999845e+02	8.060000000000000497e-01
9.661510000000000673e+02	9.250000000000000444e-01
9.668960000000000719e+02	8.120000000000000551e-01
9.676870000000000118e+02	9.599999999999999645e-01
9.685439999999999827e+02	9.419999999999999485e-01
9.693960000000000719e+02	8.269999999999999574e-01
9.702789999999999964e+02	9.330000000000000515e-01
9.711490000000000009e+02	9.160000000000000364e-01
9.719869999999999663e+02	9.080000000000000293e-01
9.728020000000000209e+02	8.599999999999999867e-01
9.736180000000000518e+02	9.290000000000000480e-01
9.743840000000000146e+02	9.040000000000000258e-01
9.751209999999999809e+02	8.810000000000000053e-01
9.758780000000000427e+02	8.349999999999999645e-01
9.766240000000000236e+02	8.709999999999999964e-01
9.773630000000000564e+02	8.910000000000000142e-01
9.780790000000000646e+02	8.910000000000000142e-01
9.787599999999999909e+02	8.619999999999999885e-01
9.794130000000000109e+02	9.150000000000000355e-01
9.801240000000000236e+02	9.120000000000000329e-01
9.808940000000000055e+02	9.469999999999999529e-01
9.817390000000000327e+02	8.249999999999999556e-01
9.826220000000000709e+02	8.910000000000000142e-01
9.835170000000000528e+02	1.016999999999999904e+00
9.843210000000000264e+02	8.750000000000000000e-01
9.850800000000000409e+02	9.290000000000000480e-01
9.858619999999999663e+02	9.290000000000000480e-01
9.866180000000000518e+02	8.669999999999999929e-01
9.873740000000000236e+02	7.389999999999999902e-01
9.881539999999999964e+02	8.509999999999999787e-01
9.889360000000000355e+02	8.890000000000000124e-01
9.897280000000000655e+02	8.289999999999999591e-01
9.905840000000000600e+02	9.779999999999999805e-01
9.914070000000000391e+02	9.669999999999999707e-01
9.922590000000000146e+02	8.780000000000000027e-01
9.931090000000000373e+02	8.960000000000000187e-01
9.939540000000000646e+02	9.020000000000000240e-01
9.947400000000000091e+02	8.990000000000000213e-01
9.954909999999999854e+02	8.139999999999999458e-01
9.962509999999999764e+02	8.159999999999999476e-01
9.970570000000000164e+02	8.870000000000000107e-01
9.978319999999999936e+02	8.569999999999999840e-01
9.986230000000000473e+02	9.010000000000000231e-01
9.993569999999999709e+02	8.229999999999999538e-01
1.000057000000000016e+03	8.810000000000000053e-01
1.000853000000000065e+03	8.519999999999999796e-01
1.001651000000000067e+03	9.210000000000000409e-01
1.002451000000000022e+03	9.370000000000000551e-01
1.003269999999999982e+03	9.340000000000000524e-01
1.004047000000000025e+03	9.539999999999999591e-01
1.004784999999999968e+03	8.729999999999999982e-01
1.005523000000000025e+03	8.489999999999999769e-01
1.006290000000000077e+03	9.160000000000000364e-01
1.007062999999999988e+03	9.190000000000000391e-01
1.007846000000000004e+03	8.319999999999999618e-01
1.008623000000000047e+03	8.890000000000000124e-01
1.009401000000000067e+03	9.160000000000000364e-01
1.010201999999999998e+03	9.180000000000000382e-01
1.010974000000000046e+03	9.120000000000000329e-01
1.011771000000000072e+03	8.309999999999999609e-01
1.012605999999999995e+03	8.379999999999999671e-01
1.013456999999999994e+03	8.739999999999999991e-01
1.014344000000000051e+03	8.830000000000000071e-01
1.015187000000000012e+03	9.699999999999999734e-01
1.015997000000000071e+03	8.509999999999999787e-01
1.016788000000000011e+03	9.100000000000000311e-01
1.017528999999999996e+03	9.250000000000000444e-01
1.018250000000000000e+03	7.980000000000000426e-01
1.019014000000000010e+03	8.870000000000000107e-01
1.019813999999999965e+03	9.929999999999999938e-01
1.020609000000000037e+03	9.709999999999999742e-01
1.021438999999999965e+03	9.340000000000000524e-01
1.022245999999999981e+03	8.739999999999999991e-01
1.023076000000000022e+03	8.639999999999999902e-01
1.023879999999999995e+03	9.389999999999999458e-01
1.024683999999999969e+03	9.419999999999999485e-01
1.025451999999999998e+03	9.130000000000000338e-01
1.026218000000000075e+03	9.280000000000000471e-01
1.026935999999999922e+03	9.030000000000000249e-01
1.027616999999999962e+03	8.259999999999999565e-01
1.028319999999999936e+03	8.689999999999999947e-01
1.029099999999999909e+03	8.900000000000000133e-01
1.029937000000000126e+03	9.569999999999999618e-01
1.030808999999999969e+03	8.309999999999999609e-01
1.031664999999999964e+03	9.699999999999999734e-01
1.032440000000000055e+03	8.349999999999999645e-01
1.033208000000000084e+03	8.579999999999999849e-01
1.033981999999999971e+03	7.940000000000000391e-01
1.034750999999999976e+03	8.790000000000000036e-01
1.035553000000000111e+03	9.370000000000000551e-01
1.036353000000000065e+03	8.599999999999999867e-01
1.037181000000000040e+03	9.429999999999999494e-01
1.037971000000000004e+03	9.020000000000000240e-01
1.038788999999999987e+03	9.120000000000000329e-01
1.039592000000000098e+03	7.700000000000000178e-01
1.040410000000000082e+03	9.090000000000000302e-01
1.041261999999999944e+03	9.080000000000000293e-01
1.042133000000000038e+03	9.529999999999999583e-01
1.043002999999999929e+03	9.260000000000000453e-01
1.043849999999999909e+03	8.709999999999999964e-01
1.044708000000000084e+03	8.930000000000000160e-01
1.045555000000000064e+03	9.370000000000000551e-01
1.046393000000000029e+03	9.360000000000000542e-01
1.047188000000000102e+03	8.810000000000000053e-01
1.047971999999999980e+03	8.399999999999999689e-01
1.048750000000000000e+03	9.350000000000000533e-01
1.049543000000000120e+03	9.140000000000000346e-01
1.050376999999999953e+03	9.409999999999999476e-01
1.051224999999999909e+03	9.030000000000000249e-01
1.052115000000000009e+03	9.859999999999999876e-01
1.053010999999999967e+03	9.150000000000000355e-01
1.053925999999999931e+03	9.729999999999999760e-01
1.054817000000000007e+03	8.429999999999999716e-01
1.055701000000000022e+03	8.729999999999999982e-01
1.056540999999999940e+03	9.559999999999999609e-01
1.057403999999999996e+03	9.200000000000000400e-01
1.058259000000000015e+03	9.050000000000000266e-01
1.059123000000000047e+03	9.649999999999999689e-01
1.059960000000000036e+03	9.010000000000000231e-01
1.060816000000000031e+03	9.360000000000000542e-01
1.061651000000000067e+03	9.140000000000000346e-01
1.062502999999999929e+03	9.140000000000000346e-01
1.063358999999999924e+03	9.479999999999999538e-01
1.064185999999999922e+03	9.340000000000000524e-01
1.065016000000000076e+03	9.320000000000000506e-01
1.065825000000000045e+03	9.360000000000000542e-01
1.066660000000000082e+03	9.589999999999999636e-01
1.067493999999999915e+03	9.100000000000000311e-01
1.068336000000000013e+03	9.280000000000000471e-01
1.069159000000000106e+03	9.220000000000000417e-01
1.069980000000000018e+03	8.579999999999999849e-01
1.070748000000000047e+03	9.370000000000000551e-01
1.071530999999999949e+03	8.760000000000000009e-01
1.072326999999999998e+03	8.990000000000000213e-01
1.073125999999999976e+03	8.900000000000000133e-01
1.073951000000000022e+03	1.040999999999999925e+00
1.074755000000000109e+03	9.669999999999999707e-01
1.075552000000000135e+03	9.659999999999999698e-01
1.076348999999999933e+03	8.589999999999999858e-01
1.077158000000000129e+03	9.360000000000000542e-01
1.077986000000000104e+03	9.699999999999999734e-01
1.078808999999999969e+03	9.000000000000000222e-01
1.079578999999999951e+03	8.499999999999999778e-01
1.080288000000000011e+03	9.150000000000000355e-01
1.080999000000000024e+03	9.320000000000000506e-01
1.081767000000000053e+03	9.340000000000000524e-01
1.082564000000000078e+03	8.739999999999999991e-01
1.083387999999999920e+03	9.709999999999999742e-01
1.084187000000000126e+03	9.280000000000000471e-01
1.084989000000000033e+03	8.609999999999999876e-01
1.085769999999999982e+03	8.800000000000000044e-01
1.086554000000000087e+03	9.809999999999999831e-01
1.087319999999999936e+03	1.050999999999999934e+00
1.088087999999999965e+03	8.920000000000000151e-01
1.088819999999999936e+03	9.100000000000000311e-01
1.089607999999999947e+03	8.810000000000000053e-01
1.090416999999999916e+03	8.780000000000000027e-01
1.091304000000000087e+03	9.529999999999999583e-01
1.092155999999999949e+03	8.860000000000000098e-01
1.093027000000000044e+03	8.750000000000000000e-01
1.093852000000000089e+03	9.749999999999999778e-01
1.094652000000000044e+03	9.200000000000000400e-01
1.095387999999999920e+03	9.399999999999999467e-01
1.096069999999999936e+03	9.220000000000000417e-01
1.096767000000000053e+03	9.140000000000000346e-01
1.097508000000000038e+03	9.419999999999999485e-01
1.098268000000000029e+03	8.579999999999999849e-01
1.099082000000000107e+03	8.389999999999999680e-01
1.099903000000000020e+03	9.200000000000000400e-01
1.100740000000000009e+03	8.930000000000000160e-01
1.101591000000000122e+03	9.489999999999999547e-01
1.102364000000000033e+03	8.940000000000000169e-01
1.103117999999999938e+03	9.360000000000000542e-01
1.103879000000000133e+03	9.090000000000000302e-01
1.104642000000000053e+03	9.050000000000000266e-01
1.105443999999999960e+03	9.469999999999999529e-01
1.106245000000000118e+03	9.419999999999999485e-01
1.107067000000000007e+03	8.810000000000000053e-01
1.107901000000000067e+03	9.200000000000000400e-01
1.108697000000000116e+03	8.900000000000000133e-01
1.109526000000000067e+03	9.719999999999999751e-01
1.110355999999999995e+03	9.649999999999999689e-01
1.111142000000000053e+03	9.160000000000000364e-01
1.111904999999999973e+03	9.330000000000000515e-01
1.112658000000000129e+03	8.060000000000000497e-01
1.113383000000000038e+03	8.739999999999999991e-01
1.114100000000000136e+03	9.230000000000000426e-01
1.114781999999999925e+03	9.110000000000000320e-01
1.115437000000000126e+03	9.280000000000000471e-01
1.116130000000000109e+03	9.849999999999999867e-01
1.116839999999999918e+03	9.399999999999999467e-01
1.117520999999999958e+03	8.499999999999999778e-01
1.118258000000000038e+03	8.760000000000000009e-01
1.119017000000000053e+03	8.329999999999999627e-01
1.119789999999999964e+03	7.880000000000000338e-01
1.120559999999999945e+03	9.529999999999999583e-01
1.121278000000000020e+03	8.840000000000000080e-01
1.122004000000000133e+03	8.780000000000000027e-01
1.122692999999999984e+03	8.619999999999999885e-01
1.123423999999999978e+03	7.950000000000000400e-01
1.124170000000000073e+03	8.629999999999999893e-01
1.125002999999999929e+03	8.299999999999999600e-01
1.125864000000000033e+03	9.260000000000000453e-01
1.126660000000000082e+03	8.659999999999999920e-01
1.127393000000000029e+03	8.970000000000000195e-01
1.128082000000000107e+03	8.199999999999999512e-01
1.128784000000000106e+03	8.549999999999999822e-01
1.129544000000000096e+03	9.000000000000000222e-01
1.130342000000000098e+03	7.449999999999999956e-01
1.131145999999999958e+03	9.050000000000000266e-01
1.131967000000000098e+03	8.930000000000000160e-01
1.132803000000000111e+03	9.360000000000000542e-01
1.133594000000000051e+03	8.669999999999999929e-01
1.134372000000000071e+03	9.429999999999999494e-01
1.135145999999999958e+03	8.669999999999999929e-01
1.135896999999999935e+03	8.100000000000000533e-01
1.136618999999999915e+03	9.310000000000000497e-01
1.137371000000000095e+03	9.479999999999999538e-01
1.138066000000000031e+03	8.120000000000000551e-01
1.138730000000000018e+03	7.820000000000000284e-01
1.139462999999999965e+03	7.850000000000000311e-01
