0	-99.9
0.001	-103.6
0.002	-106.8
0.003	-109.1
0.004	-110.3
0.005	-110.4
0.006	-109.2
0.007	-106.9
0.008	-103.6
0.009	-99.6
0.01	-95.1
0.011	-90.6
0.012	-86.3
0.013	-82.7
0.014	-79.9
0.015	-78.3
0.016	-78
0.017	-78.9
0.018	-81
0.019	-84.1
0.02	-87.9
0.021	-92
0.022	-96.1
0.023	-99.8
0.024	-102.7
0.025	-104.6
0.026	-105.1
0.027	-104.3
0.028	-101.9
0.029	-98.2
0.03	-93.3
0.031	-87.5
0.032	-81
0.033	-74.2
0.034	-67.6
0.035	-61.3
0.036	-55.8
0.037	-51.2
0.038	-47.7
0.039	-45.5
0.04	-44.5
0.041	-44.6
0.042	-45.8
0.043	-47.9
0.044	-50.6
0.045	-53.9
0.046	-57.3
0.047	-60.9
0.048	-64.3
0.049	-67.5
0.05	-70.5
0.051	-73
0.052	-75.2
0.053	-76.9
0.054	-78.2
0.055	-79
0.056	-79.5
0.057	-79.6
0.058	-79.4
0.059	-78.7
0.06	-77.7
0.061	-76.4
0.062	-74.7
0.063	-72.7
0.064	-70.6
0.065	-68.3
0.066	-66
0.067	-63.8
0.068	-61.8
0.069	-60.1
0.07	-58.9
0.071	-58.3
0.072	-58.3
0.073	-58.9
0.074	-60.2
0.075	-62
0.076	-64.2
0.077	-66.7
0.078	-69.2
0.079	-71.7
0.08	-73.9
0.081	-75.7
0.082	-76.9
0.083	-77.4
0.084	-77.2
0.085	-76.3
0.086	-74.8
0.087	-72.8
0.088	-70.6
0.089	-68.2
0.09	-65.8
0.091	-63.8
0.092	-62.1
0.093	-61
0.094	-60.4
0.095	-60.4
0.096	-60.8
0.097	-61.6
0.098	-62.6
0.099	-63.7
0.1	-64.5
0.101	-65
0.102	-64.9
0.103	-64.2
0.104	-62.9
0.105	-60.9
0.106	-58.3
0.107	-55.3
0.108	-52.1
0.109	-49
0.11	-46.1
0.111	-43.7
0.112	-42
0.113	-41.1
0.114	-41.2
0.115	-42.3
0.116	-44.3
0.117	-47
0.118	-50.3
0.119	-54
0.12	-57.7
0.121	-61.2
0.122	-64.2
0.123	-66.6
0.124	-68
0.125	-68.6
0.126	-68.1
0.127	-66.8
0.128	-64.6
0.129	-61.9
0.13	-58.8
0.131	-55.6
0.132	-52.5
0.133	-49.8
0.134	-47.7
0.135	-46.3
0.136	-45.6
0.137	-45.8
0.138	-46.7
0.139	-48.1
0.14	-50
0.141	-52.2
0.142	-54.4
0.143	-56.5
0.144	-58.2
0.145	-59.5
0.146	-60.3
0.147	-60.5
0.148	-60.1
0.149	-59.3
0.15	-58.1
0.151	-56.6
0.152	-55.1
0.153	-53.5
0.154	-52.1
0.155	-50.9
0.156	-50
0.157	-49.4
0.158	-49
0.159	-48.9
0.16	-49
0.161	-49.1
0.162	-49.3
0.163	-49.4
0.164	-49.4
0.165	-49.4
0.166	-49.3
0.167	-49.2
0.168	-49.2
0.169	-49.4
0.17	-49.8
0.171	-50.7
0.172	-52
0.173	-53.8
0.174	-56
0.175	-58.7
0.176	-61.6
0.177	-64.7
0.178	-67.7
0.179	-70.4
0.18	-72.7
0.181	-74.2
0.182	-74.9
0.183	-74.6
0.184	-73.2
0.185	-70.8
0.186	-67.5
0.187	-63.4
0.188	-58.8
0.189	-53.9
0.19	-49
0.191	-44.4
0.192	-40.4
0.193	-37.3
0.194	-35.1
0.195	-34
0.196	-34
0.197	-35
0.198	-36.8
0.199	-39.3
0.2	-42.1
0.201	-45
0.202	-47.7
0.203	-49.9
0.204	-51.4
0.205	-52.1
0.206	-51.9
0.207	-50.9
0.208	-49.2
0.209	-46.9
0.21	-44.5
0.211	-42.1
0.212	-40
0.213	-38.5
0.214	-37.9
0.215	-38.4
0.216	-39.9
0.217	-42.6
0.218	-46.3
0.219	-50.8
0.22	-55.7
0.221	-60.9
0.222	-65.9
0.223	-70.3
0.224	-73.8
0.225	-76
0.226	-76.9
0.227	-76.2
0.228	-74.1
0.229	-70.5
0.23	-65.6
0.231	-59.9
0.232	-53.6
0.233	-47.2
0.234	-41
0.235	-35.4
0.236	-30.9
0.237	-27.6
0.238	-25.7
0.239	-25.4
0.24	-26.6
0.241	-29.2
0.242	-33
0.243	-37.7
0.244	-43
0.245	-48.6
0.246	-54.2
0.247	-59.4
0.248	-64.1
0.249	-68
0.25	-71.1
0.251	-73.2
0.252	-74.5
0.253	-75
0.254	-74.9
0.255	-74.2
0.256	-73.2
0.257	-72.1
0.258	-70.8
0.259	-69.6
0.26	-68.5
0.261	-67.5
0.262	-66.6
0.263	-65.6
0.264	-64.5
0.265	-63.1
0.266	-61.5
0.267	-59.4
0.268	-56.8
0.269	-53.8
0.27	-50.3
0.271	-46.5
0.272	-42.4
0.273	-38.2
0.274	-34
0.275	-30.2
0.276	-26.7
0.277	-23.9
0.278	-21.6
0.279	-20.1
0.28	-19.4
0.281	-19.4
0.282	-20
0.283	-21
0.284	-22.3
0.285	-23.6
0.286	-24.8
0.287	-25.7
0.288	-26
0.289	-25.6
0.29	-24.5
0.291	-22.5
0.292	-19.8
0.293	-16.3
0.294	-12.2
0.295	-7.7
0.296	-3
0.297	1.8
0.298	6.3
0.299	10.5
0.3	14
0.301	16.9
0.302	18.9
0.303	20
0.304	20.2
0.305	19.6
0.306	18.2
0.307	16.2
0.308	13.6
0.309	10.7
0.31	7.6
0.311	4.5
0.312	1.7
0.313	-0.9
0.314	-3.1
0.315	-4.7
0.316	-5.7
0.317	-6.2
0.318	-6
0.319	-5.3
0.32	-4.1
0.321	-2.5
0.322	-0.7
0.323	1.3
0.324	3.2
0.325	5
0.326	6.6
0.327	7.7
0.328	8.3
0.329	8.3
0.33	7.6
0.331	6.2
0.332	4.2
0.333	1.4
0.334	-1.9
0.335	-5.6
0.336	-9.7
0.337	-14
0.338	-18.4
0.339	-22.6
0.34	-26.5
0.341	-30
0.342	-32.9
0.343	-35.3
0.344	-37
0.345	-38
0.346	-38.4
0.347	-38.3
0.348	-37.8
0.349	-37
0.35	-36.1
0.351	-35.3
0.352	-34.8
0.353	-34.8
0.354	-35.3
0.355	-36.6
0.356	-38.6
0.357	-41.4
0.358	-44.9
0.359	-49.1
0.36	-53.9
0.361	-59
0.362	-64.3
0.363	-69.6
0.364	-74.6
0.365	-79.2
0.366	-83.2
0.367	-86.5
0.368	-88.9
0.369	-90.4
0.37	-90.9
0.371	-90.7
0.372	-89.6
0.373	-87.7
0.374	-85.3
0.375	-82.5
0.376	-79.4
0.377	-76.3
0.378	-73.1
0.379	-70
0.38	-67.1
0.381	-64.4
0.382	-61.9
0.383	-59.7
0.384	-57.7
0.385	-55.7
0.386	-53.8
0.387	-52
0.388	-50.2
0.389	-48.3
0.39	-46.4
0.391	-44.5
0.392	-42.6
0.393	-41
0.394	-39.7
0.395	-38.8
0.396	-38.5
0.397	-39
0.398	-40.3
0.399	-42.7
0.4	-46.2
0.401	-50.9
0.402	-56.7
0.403	-63.5
0.404	-71.2
0.405	-79.9
0.406	-89.1
0.407	-98.6
0.408	-107.7
0.409	-116.5
0.41	-124.6
0.411	-131.6
0.412	-137.1
0.413	-140
0.414	-140.5
0.415	-138.4
0.416	-133.3
0.417	-124.7
0.418	-111.8
0.419	-94.9
0.42	-73.9
0.421	-48.8
0.422	-19.3
0.423	15
0.424	53.2
0.425	95.4
0.426	141.1
0.427	190
0.428	241.6
0.429	294.8
0.43	349
0.431	403.4
0.432	457
0.433	508.5
0.434	556.4
0.435	600.2
0.436	638.9
0.437	671.4
0.438	696.2
0.439	712.5
0.44	720.2
0.441	719.2
0.442	709.1
0.443	689.5
0.444	660.8
0.445	624.1
0.446	580.6
0.447	530.9
0.448	476.2
0.449	417.8
0.45	357.6
0.451	297.1
0.452	237.7
0.453	180.7
0.454	127.6
0.455	79.4
0.456	36.9
0.457	0.7
0.458	-28.9
0.459	-51.2
0.46	-67
0.461	-76.8
0.462	-81.1
0.463	-80.8
0.464	-75.9
0.465	-68.3
0.466	-58.9
0.467	-48.7
0.468	-38.4
0.469	-28.3
0.47	-19.4
0.471	-12.3
0.472	-7.3
0.473	-4.4
0.474	-3.2
0.475	-3.7
0.476	-5.9
0.477	-9.2
0.478	-13.3
0.479	-17.6
0.48	-21.9
0.481	-25.8
0.482	-29.1
0.483	-31.5
0.484	-33.2
0.485	-33.9
0.486	-33.8
0.487	-33.1
0.488	-31.9
0.489	-30.5
0.49	-29.1
0.491	-27.8
0.492	-26.8
0.493	-26.3
0.494	-26.3
0.495	-26.8
0.496	-27.7
0.497	-29
0.498	-30.6
0.499	-32.1
0.5	-33.6
0.501	-34.9
0.502	-35.8
0.503	-36.2
0.504	-36.1
0.505	-35.6
0.506	-34.7
0.507	-33.4
0.508	-31.9
0.509	-30.3
0.51	-28.7
0.511	-27.3
0.512	-26.2
0.513	-25.3
0.514	-24.8
0.515	-24.7
0.516	-24.8
0.517	-25.1
0.518	-25.4
0.519	-25.6
0.52	-25.5
0.521	-25
0.522	-24.1
0.523	-22.5
0.524	-20.3
0.525	-17.6
0.526	-14.2
0.527	-10.5
0.528	-6.4
0.529	-2.1
0.53	2.1
0.531	6.1
0.532	9.8
0.533	13
0.534	15.6
0.535	17.6
0.536	18.9
0.537	19.5
0.538	19.5
0.539	19
0.54	18.1
0.541	16.8
0.542	15.4
0.543	13.8
0.544	12.2
0.545	10.6
0.546	9.2
0.547	7.8
0.548	6.6
0.549	5.5
0.55	4.5
0.551	3.6
0.552	2.9
0.553	2.3
0.554	1.9
0.555	1.6
0.556	1.6
0.557	1.9
0.558	2.5
0.559	3.6
0.56	4.9
0.561	6.7
0.562	8.7
0.563	11
0.564	13.5
0.565	15.9
0.566	18.2
0.567	20.1
0.568	21.7
0.569	22.6
0.57	22.9
0.571	22.4
0.572	21.2
0.573	19.4
0.574	17.1
0.575	14.3
0.576	11.4
0.577	8.6
0.578	6
0.579	4
0.58	2.7
0.581	2.3
0.582	2.9
0.583	4.6
0.584	7.2
0.585	10.8
0.586	15.1
0.587	19.9
0.588	25.2
0.589	30.6
0.59	35.8
0.591	40.7
0.592	45.2
0.593	49.2
0.594	52.5
0.595	55.2
0.596	57.5
0.597	59.3
0.598	60.9
0.599	62.5
0.6	64
0.601	65.8
0.602	67.9
0.603	70.3
0.604	73
0.605	76
0.606	79
0.607	82.1
0.608	85
0.609	87.6
0.61	89.6
0.611	91
0.612	91.7
0.613	91.8
0.614	91.2
0.615	90.2
0.616	88.9
0.617	87.5
0.618	86.4
0.619	85.7
0.62	85.7
0.621	86.7
0.622	88.6
0.623	91.7
0.624	95.8
0.625	100.9
0.626	106.7
0.627	113
0.628	119.5
0.629	125.9
0.63	131.8
0.631	136.9
0.632	141
0.633	144
0.634	145.8
0.635	146.3
0.636	145.8
0.637	144.4
0.638	142.5
0.639	140.2
0.64	137.9
0.641	136.1
0.642	134.9
0.643	134.6
0.644	135.4
0.645	137.2
0.646	140.1
0.647	143.9
0.648	148.5
0.649	153.6
0.65	158.8
0.651	164
0.652	168.7
0.653	172.9
0.654	176.1
0.655	178.5
0.656	179.8
0.657	180.3
0.658	179.9
0.659	178.9
0.66	177.6
0.661	176.1
0.662	174.7
0.663	173.7
0.664	173.1
0.665	173.3
0.666	174.1
0.667	175.6
0.668	177.7
0.669	180.3
0.67	183.1
0.671	186
0.672	188.7
0.673	190.9
0.674	192.5
0.675	193.4
0.676	193.5
0.677	192.7
0.678	190.9
0.679	188.3
0.68	185
0.681	181.1
0.682	176.8
0.683	172.1
0.684	167.2
0.685	162.3
0.686	157.3
0.687	152.5
0.688	147.5
0.689	142.7
0.69	137.8
0.691	132.9
0.692	127.8
0.693	122.6
0.694	117.2
0.695	111.7
0.696	106.2
0.697	100.6
0.698	95
0.699	89.7
0.7	84.7
0.701	80
0.702	75.9
0.703	72.1
0.704	68.8
0.705	66.1
0.706	63.6
0.707	61.3
0.708	58.8
0.709	56.2
0.71	53.3
0.711	49.7
0.712	45.3
0.713	40
0.714	33.9
0.715	26.9
0.716	19.2
0.717	10.8
0.718	2
0.719	-6.8
0.72	-15.4
0.721	-23.5
0.722	-30.9
0.723	-37.3
0.724	-42.5
0.725	-46.3
0.726	-48.8
0.727	-50.1
0.728	-50.2
0.729	-49.3
0.73	-47.7
0.731	-45.6
0.732	-43.4
0.733	-41.3
0.734	-39.5
0.735	-38.2
0.736	-37.6
0.737	-37.8
0.738	-38.6
0.739	-40.1
0.74	-42
0.741	-44.2
0.742	-46.6
0.743	-49.1
0.744	-51.3
0.745	-53.1
0.746	-54.6
0.747	-55.6
0.748	-56.3
0.749	-56.7
0.75	-56.9
0.751	-57.1
0.752	-57.5
0.753	-58.3
0.754	-59.6
0.755	-61.5
0.756	-64.2
0.757	-67.5
0.758	-71.4
0.759	-75.9
0.76	-80.6
0.761	-85.4
0.762	-90.1
0.763	-94.3
0.764	-97.9
0.765	-100.7
0.766	-102.5
0.767	-103.3
0.768	-103.1
0.769	-101.9
0.77	-100
0.771	-97.4
0.772	-94.5
0.773	-91.5
0.774	-88.8
0.775	-86.4
0.776	-84.8
0.777	-84
0.778	-84.2
0.779	-85.3
0.78	-87.4
0.781	-90.2
0.782	-93.7
0.783	-97.6
0.784	-101.6
0.785	-105.5
0.786	-109.1
0.787	-112
0.788	-114.1
0.789	-115.3
0.79	-115.4
0.791	-114.5
0.792	-112.6
0.793	-109.8
0.794	-106.3
0.795	-102.2
0.796	-97.7
0.797	-93.1
0.798	-88.5
0.799	-84.1
0.8	-80.1
0.801	-76.7
0.802	-73.8
0.803	-71.6
0.804	-70.2
0.805	-69.4
0.806	-69.3
0.807	-69.8
0.808	-70.8
0.809	-72.3
0.81	-74.2
0.811	-76.3
0.812	-78.7
0.813	-81
0.814	-83.4
0.815	-85.7
0.816	-87.8
0.817	-89.5
0.818	-90.9
0.819	-91.8
0.82	-92.3
0.821	-92.1
0.822	-91.4
0.823	-90.1
0.824	-88.2
0.825	-85.8
0.826	-83
0.827	-79.8
0.828	-76.4
0.829	-73
0.83	-69.6
0.831	-66.5
0.832	-63.7
0.833	-61.5
0.834	-59.9
0.835	-58.9
0.836	-58.7
0.837	-59.1
0.838	-60.2
0.839	-62
0.84	-64.2
0.841	-66.8
0.842	-69.6
0.843	-72.5
0.844	-75.3
0.845	-78
0.846	-80.3
0.847	-82.2
0.848	-83.6
0.849	-84.5
0.85	-84.8
0.851	-84.6
0.852	-83.9
0.853	-82.7
0.854	-81
0.855	-79
0.856	-76.5
0.857	-73.8
0.858	-70.8
0.859	-67.7
0.86	-64.3
0.861	-61
0.862	-57.6
0.863	-54.2
0.864	-51.1
0.865	-48.3
0.866	-45.8
0.867	-43.9
0.868	-42.6
0.869	-42
0.87	-42.2
0.871	-43.3
0.872	-45.2
0.873	-47.9
0.874	-51.4
0.875	-55.4
0.876	-59.9
0.877	-64.6
0.878	-69.2
0.879	-73.5
0.88	-77.2
0.881	-80.1
0.882	-82
0.883	-82.7
0.884	-82.2
0.885	-80.4
0.886	-77.4
0.887	-73.2
0.888	-68.3
0.889	-62.7
0.89	-56.8
0.891	-50.9
0.892	-45.5
0.893	-40.7
0.894	-36.9
0.895	-34.3
0.896	-33
0.897	-33.1
0.898	-34.5
0.899	-37.2
0.9	-40.9
0.901	-45.4
0.902	-50.4
0.903	-55.5
0.904	-60.5
0.905	-65
0.906	-68.7
0.907	-71.4
0.908	-73
0.909	-73.4
0.91	-72.6
0.911	-70.8
0.912	-68
0.913	-64.6
0.914	-60.7
0.915	-56.7
0.916	-52.8
0.917	-49.3
0.918	-46.4
0.919	-44.3
0.92	-43
0.921	-42.7
0.922	-43.3
0.923	-44.8
0.924	-47
0.925	-49.8
0.926	-52.9
0.927	-56.3
0.928	-59.6
0.929	-62.7
0.93	-65.4
0.931	-67.6
0.932	-69.3
0.933	-70.3
0.934	-70.8
0.935	-70.6
0.936	-70
0.937	-69
0.938	-67.6
0.939	-66.1
0.94	-64.4
0.941	-62.8
0.942	-61.3
0.943	-60
0.944	-58.9
0.945	-58
0.946	-57.3
0.947	-56.9
0.948	-56.7
0.949	-56.6
0.95	-56.7
0.951	-56.9
0.952	-57.1
0.953	-57.4
0.954	-57.7
0.955	-58
0.956	-58.3
0.957	-58.5
0.958	-58.7
0.959	-58.8
0.96	-58.9
0.961	-58.8
0.962	-58.7
0.963	-58.5
0.964	-58.1
0.965	-57.7
0.966	-57.1
0.967	-56.4
0.968	-55.5
0.969	-54.6
0.97	-53.6
0.971	-52.6
0.972	-51.6
0.973	-50.6
0.974	-49.9
0.975	-49.3
0.976	-48.9
0.977	-48.9
0.978	-49.1
0.979	-49.7
0.98	-50.7
0.981	-51.9
0.982	-53.4
0.983	-55.1
0.984	-56.9
0.985	-58.9
0.986	-60.8
0.987	-62.6
0.988	-64.2
0.989	-65.5
0.99	-66.6
0.991	-67.2
0.992	-67.5
0.993	-67.3
0.994	-66.7
0.995	-65.7
0.996	-64.4
0.997	-62.8
0.998	-60.9
0.999	-58.9
1	-56.7
1.001	-54.5
1.002	-52.4
1.003	-50.3
1.004	-48.4
1.005	-46.7
1.006	-45.1
1.007	-43.8
1.008	-42.7
1.009	-41.9
1.01	-41.2
1.011	-40.8
1.012	-40.4
1.013	-40.2
1.014	-40.1
1.015	-40
1.016	-40
1.017	-40
1.018	-39.8
1.019	-39.6
1.02	-39.3
1.021	-39
1.022	-38.4
1.023	-37.7
1.024	-36.8
1.025	-35.8
1.026	-34.5
1.027	-33
1.028	-31.2
1.029	-29.2
1.03	-26.8
1.031	-24.2
1.032	-21.3
1.033	-18
1.034	-14.4
1.035	-10.6
1.036	-6.4
1.037	-2.1
1.038	2.4
1.039	6.9
1.04	11.3
1.041	15.5
1.042	19.5
1.043	22.9
1.044	25.8
1.045	27.9
1.046	29.2
1.047	29.6
1.048	29
1.049	27.4
1.05	24.9
1.051	21.6
1.052	17.5
1.053	12.9
1.054	7.9
1.055	2.8
1.056	-2.3
1.057	-7.1
1.058	-11.4
1.059	-14.9
1.06	-17.7
1.061	-19.5
1.062	-20.4
1.063	-20.3
1.064	-19.3
1.065	-17.5
1.066	-15.2
1.067	-12.4
1.068	-9.4
1.069	-6.4
1.07	-3.5
1.071	-1
1.072	1
1.073	2.4
1.074	3.2
1.075	3.4
1.076	3.1
1.077	2.3
1.078	1
1.079	-0.6
1.08	-2.4
1.081	-4.2
1.082	-6.1
1.083	-8
1.084	-10
1.085	-11.9
1.086	-13.9
1.087	-16
1.088	-18.4
1.089	-21.1
1.09	-24.2
1.091	-27.8
1.092	-31.9
1.093	-36.5
1.094	-41.5
1.095	-46.8
1.096	-52.4
1.097	-58
1.098	-63.4
1.099	-68.5
1.1	-73.1
1.101	-77.1
1.102	-80.2
1.103	-82.6
1.104	-83.9
1.105	-84.4
1.106	-84.2
1.107	-83.2
1.108	-81.7
1.109	-79.8
1.11	-77.7
1.111	-75.5
1.112	-73.5
1.113	-71.6
1.114	-70.1
1.115	-68.9
1.116	-68.2
1.117	-67.7
1.118	-67.6
1.119	-67.7
1.12	-67.9
1.121	-68.2
1.122	-68.5
1.123	-68.7
1.124	-68.9
1.125	-68.9
1.126	-68.8
1.127	-68.7
1.128	-68.5
1.129	-68.3
1.13	-68.1
1.131	-68
1.132	-67.9
1.133	-67.9
1.134	-67.9
1.135	-67.8
1.136	-67.6
1.137	-67.3
1.138	-66.9
1.139	-66.4
1.14	-65.7
1.141	-64.9
1.142	-64.1
1.143	-63.6
1.144	-63.5
1.145	-63.9
1.146	-65.2
1.147	-67.5
1.148	-70.8
1.149	-75.5
1.15	-81.6
1.151	-89.1
1.152	-97.7
1.153	-107
1.154	-117
1.155	-127.2
1.156	-137.3
1.157	-146.4
1.158	-153.5
1.159	-158.6
1.16	-161
1.161	-160.4
1.162	-156
1.163	-146.7
1.164	-133
1.165	-114.7
1.166	-91.8
1.167	-64.1
1.168	-31.1
1.169	6.2
1.17	47.6
1.171	92.7
1.172	141.3
1.173	193
1.174	246.8
1.175	302.2
1.176	358.6
1.177	415.3
1.178	471.3
1.179	525.2
1.18	576.8
1.181	625
1.182	668.9
1.183	706.9
1.184	737.9
1.185	761.4
1.186	777.2
1.187	784.3
1.188	781.6
1.189	769
1.19	747.2
1.191	716.8
1.192	678.2
1.193	631.8
1.194	579
1.195	521.5
1.196	461.1
1.197	399.2
1.198	337
1.199	276.7
1.2	219.6
1.201	167
1.202	119.9
1.203	78.9
1.204	44.9
1.205	17.7
1.206	-3.1
1.207	-17.8
1.208	-27.1
1.209	-31.2
1.21	-31.8
1.211	-29.8
1.212	-26.3
1.213	-22
1.214	-17.1
1.215	-12.7
1.216	-9.3
1.217	-7.3
1.218	-6.5
1.219	-6.4
1.22	-7.1
1.221	-8.5
1.222	-10.3
1.223	-12.1
1.224	-13.5
1.225	-14.3
1.226	-14.6
1.227	-14.3
1.228	-13.7
1.229	-12.7
1.23	-11.6
1.231	-10.8
1.232	-10.4
1.233	-10.8
1.234	-12.1
1.235	-14.4
1.236	-17.7
1.237	-21.9
1.238	-26.8
1.239	-32.2
1.24	-37.9
1.241	-43.3
1.242	-48.4
1.243	-52.6
1.244	-55.8
1.245	-57.8
1.246	-58.6
1.247	-58.2
1.248	-56.6
1.249	-54.1
1.25	-50.8
1.251	-47.2
1.252	-43.4
1.253	-39.7
1.254	-36.3
1.255	-33.5
1.256	-31.2
1.257	-29.6
1.258	-28.5
1.259	-27.9
1.26	-27.5
1.261	-27.1
1.262	-26.6
1.263	-25.8
1.264	-24.5
1.265	-22.7
1.266	-20.4
1.267	-17.6
1.268	-14.4
1.269	-11.2
1.27	-8.1
1.271	-5.4
1.272	-3.3
1.273	-2.1
1.274	-2
1.275	-3
1.276	-5.2
1.277	-8.4
1.278	-12.4
1.279	-17.1
1.28	-22
1.281	-26.9
1.282	-31.3
1.283	-34.8
1.284	-37.3
1.285	-38.4
1.286	-38.1
1.287	-36.3
1.288	-33
1.289	-28.5
1.29	-23
1.291	-16.8
1.292	-10.4
1.293	-4.1
1.294	1.7
1.295	6.8
1.296	10.8
1.297	13.6
1.298	15.2
1.299	15.7
1.3	15
1.301	13.6
1.302	11.6
1.303	9.4
1.304	7.4
1.305	5.7
1.306	4.8
1.307	4.6
1.308	5.5
1.309	7.3
1.31	10
1.311	13.4
1.312	17.4
1.313	21.6
1.314	25.7
1.315	29.5
1.316	32.8
1.317	35.2
1.318	36.8
1.319	37.5
1.32	37.2
1.321	36.1
1.322	34.5
1.323	32.5
1.324	30.4
1.325	28.5
1.326	26.9
1.327	26
1.328	25.9
1.329	26.6
1.33	28.2
1.331	30.6
1.332	33.5
1.333	36.9
1.334	40.5
1.335	44
1.336	47.2
1.337	49.8
1.338	51.7
1.339	52.8
1.34	53.1
1.341	52.4
1.342	51.1
1.343	49.3
1.344	47.1
1.345	44.8
1.346	42.7
1.347	40.9
1.348	39.8
1.349	39.4
1.35	39.8
1.351	41.1
1.352	43.3
1.353	46.2
1.354	49.6
1.355	53.5
1.356	57.6
1.357	61.7
1.358	65.6
1.359	69.3
1.36	72.5
1.361	75.2
1.362	77.4
1.363	79.3
1.364	80.9
1.365	82.2
1.366	83.5
1.367	84.8
1.368	86.4
1.369	88.2
1.37	90.4
1.371	92.9
1.372	95.9
1.373	99.1
1.374	102.6
1.375	106.1
1.376	109.6
1.377	113
1.378	116.3
1.379	119.2
1.38	121.7
1.381	124
1.382	126
1.383	127.9
1.384	129.6
1.385	131.3
1.386	133.3
1.387	135.4
1.388	138
1.389	140.8
1.39	144
1.391	147.6
1.392	151.3
1.393	155.3
1.394	159.1
1.395	162.7
1.396	165.9
1.397	168.6
1.398	170.6
1.399	171.9
1.4	172.4
1.401	172.2
1.402	171.4
1.403	170.1
1.404	168.3
1.405	166.4
1.406	164.4
1.407	162.7
1.408	161.3
1.409	160.3
1.41	159.9
1.411	160
1.412	160.5
1.413	161.5
1.414	162.7
1.415	164.1
1.416	165.4
1.417	166.5
1.418	167.2
1.419	167.5
1.42	167.1
1.421	166.2
1.422	164.8
1.423	162.8
1.424	160.5
1.425	158
1.426	155.4
1.427	152.9
1.428	150.6
1.429	148.5
1.43	146.9
1.431	145.6
1.432	144.7
1.433	143.9
1.434	143.2
1.435	142.4
1.436	141.4
1.437	140
1.438	137.8
1.439	134.9
1.44	131.1
1.441	126.5
1.442	121
1.443	114.5
1.444	107.4
1.445	99.7
1.446	91.7
1.447	83.6
1.448	75.4
1.449	67.6
1.45	60.2
1.451	53.4
1.452	47.2
1.453	41.7
1.454	36.9
1.455	32.8
1.456	29.3
1.457	26.2
1.458	23.3
1.459	20.8
1.46	18.4
1.461	16
1.462	13.4
1.463	10.6
1.464	7.8
1.465	4.8
1.466	1.6
1.467	-1.7
1.468	-5.2
1.469	-8.7
1.47	-12.1
1.471	-15.6
1.472	-19
1.473	-22.5
1.474	-25.8
1.475	-29.2
1.476	-32.5
1.477	-35.8
1.478	-39.2
1.479	-42.6
1.48	-46
1.481	-49.4
1.482	-52.8
1.483	-56.2
1.484	-59.4
1.485	-62.6
1.486	-65.6
1.487	-68.4
1.488	-71
1.489	-73.3
1.49	-75.4
1.491	-77.3
1.492	-79
1.493	-80.5
1.494	-81.8
1.495	-82.9
1.496	-84
1.497	-84.9
1.498	-85.7
1.499	-86.3
1.5	-86.7
1.501	-86.9
1.502	-86.9
1.503	-86.6
1.504	-86
1.505	-85.1
1.506	-84
1.507	-82.7
1.508	-81.2
1.509	-79.7
1.51	-78.3
1.511	-77.1
1.512	-76.1
1.513	-75.7
1.514	-75.7
1.515	-76.4
1.516	-77.7
1.517	-79.6
1.518	-82.1
1.519	-85.1
1.52	-88.5
1.521	-92.1
1.522	-95.8
1.523	-99.3
1.524	-102.5
1.525	-105.3
1.526	-107.5
1.527	-109
1.528	-109.8
1.529	-109.9
1.53	-109.3
1.531	-108.2
1.532	-106.6
1.533	-104.6
1.534	-102.5
1.535	-100.4
1.536	-98.5
1.537	-96.7
1.538	-95.3
1.539	-94.3
1.54	-93.6
1.541	-93.2
1.542	-93.2
1.543	-93.4
1.544	-93.6
1.545	-93.9
1.546	-94.1
1.547	-94.2
1.548	-94
1.549	-93.6
1.55	-92.9
1.551	-91.9
1.552	-90.8
1.553	-89.4
1.554	-87.9
1.555	-86.4
1.556	-84.9
1.557	-83.4
1.558	-82
1.559	-80.7
1.56	-79.5
1.561	-78.5
1.562	-77.6
1.563	-76.9
1.564	-76.4
1.565	-76
1.566	-75.7
1.567	-75.7
1.568	-75.9
1.569	-76.4
1.57	-77.2
1.571	-78.4
1.572	-79.9
1.573	-81.8
1.574	-84
1.575	-86.5
1.576	-89.1
1.577	-91.8
1.578	-94.4
1.579	-96.8
1.58	-98.7
1.581	-100.1
1.582	-100.8
1.583	-100.7
1.584	-99.7
1.585	-97.9
1.586	-95.3
1.587	-92
1.588	-88.1
1.589	-84
1.59	-79.8
1.591	-75.7
1.592	-72.1
1.593	-69.1
1.594	-66.9
1.595	-65.7
1.596	-65.5
1.597	-66.3
1.598	-67.9
1.599	-70.3
1.6	-73.1
1.601	-76.2
1.602	-79.1
1.603	-81.7
1.604	-83.6
1.605	-84.6
1.606	-84.4
1.607	-83.1
1.608	-80.6
1.609	-76.9
1.61	-72.3
1.611	-66.9
1.612	-61
1.613	-55.1
1.614	-49.3
1.615	-44.2
1.616	-40
1.617	-36.9
1.618	-35.3
1.619	-35.1
1.62	-36.5
1.621	-39.4
1.622	-43.6
1.623	-48.8
1.624	-55
1.625	-61.6
1.626	-68.4
1.627	-75
1.628	-81.1
1.629	-86.4
1.63	-90.7
1.631	-93.9
1.632	-95.7
1.633	-96.2
1.634	-95.5
1.635	-93.6
1.636	-90.6
1.637	-86.9
1.638	-82.5
1.639	-77.7
1.64	-72.8
1.641	-67.9
1.642	-63.3
1.643	-59
1.644	-55.3
1.645	-52.1
1.646	-49.5
1.647	-47.5
1.648	-46.1
1.649	-45.2
1.65	-44.7
1.651	-44.5
1.652	-44.5
1.653	-44.7
1.654	-44.9
1.655	-45.1
1.656	-45.1
1.657	-45
1.658	-44.7
1.659	-44.2
1.66	-43.6
1.661	-42.8
1.662	-41.9
1.663	-41.1
1.664	-40.4
1.665	-39.8
1.666	-39.5
1.667	-39.5
1.668	-39.9
1.669	-40.8
1.67	-42.1
1.671	-43.9
1.672	-46.1
1.673	-48.7
1.674	-51.6
1.675	-54.7
1.676	-57.9
1.677	-61
1.678	-64
1.679	-66.7
1.68	-69.1
1.681	-71
1.682	-72.4
1.683	-73.2
1.684	-73.6
1.685	-73.5
1.686	-73
1.687	-72.2
1.688	-71.2
1.689	-70.1
1.69	-69.1
1.691	-68.2
1.692	-67.5
1.693	-67.1
1.694	-67
1.695	-67.3
1.696	-67.8
1.697	-68.6
1.698	-69.6
1.699	-70.6
1.7	-71.5
1.701	-72.3
1.702	-72.9
1.703	-73.1
1.704	-73
1.705	-72.4
1.706	-71.5
1.707	-70.2
1.708	-68.6
1.709	-66.8
1.71	-64.9
1.711	-63
1.712	-61.1
1.713	-59.4
1.714	-58
1.715	-56.8
1.716	-55.9
1.717	-55.4
1.718	-55.1
1.719	-55.2
1.72	-55.5
1.721	-55.9
1.722	-56.5
1.723	-57.1
1.724	-57.8
1.725	-58.5
1.726	-59.2
1.727	-59.8
1.728	-60.5
1.729	-61.1
1.73	-61.8
1.731	-62.5
1.732	-63.3
1.733	-64
1.734	-64.8
1.735	-65.6
1.736	-66.3
1.737	-66.8
1.738	-67.1
1.739	-67.2
1.74	-67
1.741	-66.3
1.742	-65.3
1.743	-63.8
1.744	-62
1.745	-59.8
1.746	-57.4
1.747	-54.8
1.748	-52.2
1.749	-49.7
1.75	-47.4
1.751	-45.5
1.752	-43.9
1.753	-42.9
1.754	-42.4
1.755	-42.5
1.756	-43.1
1.757	-44.2
1.758	-45.6
1.759	-47.3
1.76	-49.2
1.761	-51
1.762	-52.8
1.763	-54.4
1.764	-55.7
1.765	-56.7
1.766	-57.4
1.767	-57.8
1.768	-57.9
1.769	-57.8
1.77	-57.6
1.771	-57.4
1.772	-57.2
1.773	-57
1.774	-57.1
1.775	-57.2
1.776	-57.6
1.777	-58
1.778	-58.5
1.779	-59
1.78	-59.4
1.781	-59.7
1.782	-59.8
1.783	-59.6
1.784	-59.1
1.785	-58.5
1.786	-57.6
1.787	-56.6
1.788	-55.5
1.789	-54.6
1.79	-53.8
1.791	-53.4
1.792	-53.4
1.793	-53.8
1.794	-54.7
1.795	-56.1
1.796	-57.8
1.797	-59.9
1.798	-62
1.799	-64
1.8	-65.8
1.801	-67.2
1.802	-67.8
1.803	-67.7
1.804	-66.7
1.805	-64.6
1.806	-61.7
1.807	-57.8
1.808	-53.1
1.809	-48
1.81	-42.5
1.811	-36.9
1.812	-31.6
1.813	-26.8
1.814	-22.8
1.815	-19.8
1.816	-18
1.817	-17.5
1.818	-18.2
1.819	-20.3
1.82	-23.4
1.821	-27.6
1.822	-32.4
1.823	-37.6
1.824	-43
1.825	-48.2
1.826	-52.9
1.827	-56.9
1.828	-60
1.829	-61.9
1.83	-62.6
1.831	-62.1
1.832	-60.3
1.833	-57.2
1.834	-53
1.835	-47.8
1.836	-41.8
1.837	-35.2
1.838	-28.1
1.839	-20.7
1.84	-13.3
1.841	-6
1.842	1
1.843	7.7
1.844	13.8
1.845	19.2
1.846	23.9
1.847	27.8
1.848	30.9
1.849	32.9
1.85	34.1
1.851	34.2
1.852	33.5
1.853	31.9
1.854	29.5
1.855	26.3
1.856	22.6
1.857	18.6
1.858	14.3
1.859	9.9
1.86	5.7
1.861	1.9
1.862	-1.4
1.863	-4.1
1.864	-5.9
1.865	-6.9
1.866	-7
1.867	-6.3
1.868	-4.7
1.869	-2.5
1.87	0.3
1.871	3.5
1.872	6.9
1.873	10.2
1.874	13.3
1.875	16.1
1.876	18.3
1.877	19.9
1.878	20.6
1.879	20.7
1.88	19.9
1.881	18.5
1.882	16.3
1.883	13.4
1.884	10
1.885	6.1
1.886	1.9
1.887	-2.5
1.888	-7.1
1.889	-11.8
1.89	-16.5
1.891	-21.1
1.892	-25.6
1.893	-30
1.894	-34.1
1.895	-38.1
1.896	-41.7
1.897	-45
1.898	-48.1
1.899	-50.8
1.9	-53.2
1.901	-55.3
1.902	-57.1
1.903	-58.8
1.904	-60.2
1.905	-61.6
1.906	-63.1
1.907	-64.6
1.908	-66.3
1.909	-68.2
1.91	-70.3
1.911	-72.7
1.912	-75.2
1.913	-77.9
1.914	-80.4
1.915	-82.8
1.916	-84.9
1.917	-86.4
1.918	-87.3
1.919	-87.4
1.92	-86.6
1.921	-84.8
1.922	-82.3
1.923	-78.9
1.924	-75
1.925	-70.7
1.926	-66.3
1.927	-62.2
1.928	-58.6
1.929	-55.8
1.93	-54
1.931	-53.5
1.932	-54.2
1.933	-56.2
1.934	-59.4
1.935	-63.5
1.936	-68.1
1.937	-73
1.938	-77.8
1.939	-82.1
1.94	-85.5
1.941	-87.8
1.942	-88.7
1.943	-88.2
1.944	-86.5
1.945	-83.7
1.946	-80.1
1.947	-76.1
1.948	-72.3
1.949	-69.2
1.95	-67.4
1.951	-67.2
1.952	-69.1
1.953	-72.9
1.954	-79.1
1.955	-87.4
1.956	-97.6
1.957	-109.1
1.958	-120.9
1.959	-132.6
1.96	-143.4
1.961	-152.7
1.962	-159.5
1.963	-162.3
1.964	-161.3
1.965	-156.1
1.966	-146.5
1.967	-132.1
1.968	-112.3
1.969	-88.1
1.97	-59.6
1.971	-27.5
1.972	8.1
1.973	47.5
1.974	89.2
1.975	133.3
1.976	179.2
1.977	226.9
1.978	276.3
1.979	326.6
1.98	377.8
1.981	429.7
1.982	481.7
1.983	533.3
1.984	583.3
1.985	631.4
1.986	676.8
1.987	718.4
1.988	754.5
1.989	783.8
1.99	805.9
1.991	820
1.992	825.2
1.993	820.4
1.994	805.2
1.995	780.6
1.996	747.1
1.997	705.5
1.998	656.3
1.999	601.1
2	542.1
2.001	481.1
2.002	419.6
2.003	359.1
2.004	301.6
2.005	248.4
2.006	200.7
2.007	158.9
2.008	123.4
2.009	94.9
2.01	72.5
2.011	55.6
2.012	43.5
2.013	35.1
2.014	30.2
2.015	27.1
2.016	24.9
2.017	22.7
2.018	19.9
2.019	16.9
2.02	12.9
2.021	7.7
2.022	1.5
2.023	-5.4
2.024	-12
2.025	-18.3
2.026	-24.2
2.027	-29.2
2.028	-33.1
2.029	-35.4
2.03	-36.5
2.031	-36.5
2.032	-35.5
2.033	-34
2.034	-32
2.035	-30.1
2.036	-28.6
2.037	-27.8
2.038	-27.8
2.039	-28.6
2.04	-30.3
2.041	-32.8
2.042	-35.9
2.043	-39.2
2.044	-42.6
2.045	-45.7
2.046	-48.3
2.047	-50.2
2.048	-51.1
2.049	-51.1
2.05	-50.1
2.051	-48.3
2.052	-45.8
2.053	-42.7
2.054	-39.2
2.055	-35.8
2.056	-32.4
2.057	-29.3
2.058	-26.5
2.059	-24.3
2.06	-22.4
2.061	-21
2.062	-19.9
2.063	-19
2.064	-18.2
2.065	-17.3
2.066	-16.4
2.067	-15.3
2.068	-14.1
2.069	-12.9
2.07	-11.7
2.071	-10.6
2.072	-9.7
2.073	-9.3
2.074	-9.4
2.075	-10.1
2.076	-11.4
2.077	-13.3
2.078	-15.7
2.079	-18.5
2.08	-21.4
2.081	-24.3
2.082	-26.9
2.083	-29.1
2.084	-30.6
2.085	-31.2
2.086	-31
2.087	-29.9
2.088	-28
2.089	-25.3
2.09	-22.1
2.091	-18.7
2.092	-15.2
2.093	-11.9
2.094	-9.1
2.095	-7
2.096	-5.6
2.097	-5.1
2.098	-5.3
2.099	-6.4
2.1	-8
2.101	-10
2.102	-12.2
2.103	-14.4
2.104	-16.3
2.105	-17.7
2.106	-18.5
2.107	-18.7
2.108	-18.1
2.109	-16.9
2.11	-15.2
2.111	-13
2.112	-10.7
2.113	-8.2
2.114	-6
2.115	-4
2.116	-2.5
2.117	-1.4
2.118	-0.8
2.119	-0.6
2.12	-0.8
2.121	-1.1
2.122	-1.5
2.123	-1.6
2.124	-1.5
2.125	-0.8
2.126	0.3
2.127	2.1
2.128	4.6
2.129	7.6
2.13	11
2.131	14.7
2.132	18.6
2.133	22.5
2.134	26.1
2.135	29.3
2.136	32
2.137	34.2
2.138	35.9
2.139	37
2.14	37.7
2.141	38.1
2.142	38.3
2.143	38.5
2.144	38.9
2.145	39.5
2.146	40.5
2.147	41.9
2.148	43.9
2.149	46.3
2.15	49
2.151	51.9
2.152	55.1
2.153	58.2
2.154	61.2
2.155	63.9
2.156	66.3
2.157	68.4
2.158	70
2.159	71.2
2.16	72.2
2.161	72.9
2.162	73.5
2.163	74.3
2.164	75.2
2.165	76.3
2.166	77.8
2.167	79.7
2.168	82.1
2.169	84.9
2.17	88
2.171	91.3
2.172	94.8
2.173	98.3
2.174	101.6
2.175	104.7
2.176	107.5
2.177	109.9
2.178	111.9
2.179	113.5
2.18	114.7
2.181	115.7
2.182	116.4
2.183	117.2
2.184	117.9
2.185	118.8
2.186	119.8
2.187	121.2
2.188	122.9
2.189	124.8
2.19	127
2.191	129.4
2.192	131.9
2.193	134.5
2.194	136.9
2.195	139.2
2.196	141.2
2.197	142.9
2.198	144.3
2.199	145.3
2.2	146.1
2.201	146.5
2.202	146.9
2.203	147.2
2.204	147.5
2.205	147.9
2.206	148.5
2.207	149.4
2.208	150.7
2.209	152.2
2.21	154.1
2.211	156.3
2.212	158.7
2.213	161.2
2.214	163.7
2.215	166.1
2.216	168.3
2.217	170.2
2.218	171.6
2.219	172.5
2.22	172.8
2.221	172.6
2.222	171.7
2.223	170.2
2.224	168.1
2.225	165.5
2.226	162.6
2.227	159.4
2.228	156
2.229	152.5
2.23	149.1
2.231	145.9
2.232	142.9
2.233	140.1
2.234	137.8
2.235	135.9
2.236	134.5
2.237	133.4
2.238	132.5
2.239	131.9
2.24	131.5
2.241	131.1
2.242	130.6
2.243	129.6
2.244	128.3
2.245	126.5
2.246	124
2.247	120.8
2.248	116.6
2.249	111.7
2.25	106
2.251	99.6
2.252	92.5
2.253	84.9
2.254	76.9
2.255	68.9
2.256	60.9
2.257	53.1
2.258	45.5
2.259	38.6
2.26	32.2
2.261	26.5
2.262	21.4
2.263	16.8
2.264	12.8
2.265	9.4
2.266	6.2
2.267	3.2
2.268	0.1
2.269	-2.9
2.27	-6.1
2.271	-9.5
2.272	-13.2
2.273	-17.3
2.274	-21.4
2.275	-25.7
2.276	-29.9
2.277	-34.2
2.278	-38.2
2.279	-41.9
2.28	-45.2
2.281	-48
2.282	-50.4
2.283	-52.4
2.284	-54
2.285	-55.2
2.286	-56.4
2.287	-57.5
2.288	-58.7
2.289	-60.2
2.29	-61.9
2.291	-64
2.292	-66.6
2.293	-69.5
2.294	-72.7
2.295	-76
2.296	-79.2
2.297	-82.3
2.298	-85.1
2.299	-87.2
2.3	-88.6
2.301	-89.3
2.302	-89.1
2.303	-88.1
2.304	-86.4
2.305	-84.1
2.306	-81.5
2.307	-78.7
2.308	-76
2.309	-73.6
2.31	-71.9
2.311	-71
2.312	-71
2.313	-72
2.314	-74
2.315	-76.8
2.316	-80.4
2.317	-84.4
2.318	-88.6
2.319	-92.6
2.32	-96.3
2.321	-99.2
2.322	-101.1
2.323	-101.9
2.324	-101.6
2.325	-99.9
2.326	-97.2
2.327	-93.5
2.328	-89.1
2.329	-84.4
2.33	-79.5
2.331	-75
2.332	-71
2.333	-68
2.334	-66.1
2.335	-65.5
2.336	-66.3
2.337	-68.3
2.338	-71.5
2.339	-75.7
2.34	-80.5
2.341	-85.7
2.342	-91
2.343	-96
2.344	-100.5
2.345	-104.1
2.346	-106.6
2.347	-108.1
2.348	-108.3
2.349	-107.4
2.35	-105.5
2.351	-102.6
2.352	-99.2
2.353	-95.2
2.354	-91.1
2.355	-87
2.356	-83.2
2.357	-79.7
2.358	-76.8
2.359	-74.4
2.36	-72.6
2.361	-71.4
2.362	-70.6
2.363	-70.3
2.364	-70.2
2.365	-70.3
2.366	-70.4
2.367	-70.6
2.368	-70.6
2.369	-70.6
2.37	-70.5
2.371	-70.2
2.372	-69.9
2.373	-69.5
2.374	-69.2
2.375	-69
2.376	-69
2.377	-69.1
2.378	-69.4
2.379	-70
2.38	-70.7
2.381	-71.6
2.382	-72.6
2.383	-73.6
2.384	-74.7
2.385	-75.7
2.386	-76.6
2.387	-77.4
2.388	-78
2.389	-78.4
2.39	-78.6
2.391	-78.6
2.392	-78.5
2.393	-78.2
2.394	-77.7
2.395	-77.1
2.396	-76.4
2.397	-75.6
2.398	-74.7
2.399	-73.7
2.4	-72.6
2.401	-71.5
2.402	-70.4
2.403	-69.3
2.404	-68.4
2.405	-67.5
2.406	-66.9
2.407	-66.6
2.408	-66.5
2.409	-66.9
2.41	-67.6
2.411	-68.8
2.412	-70.3
2.413	-72.1
2.414	-74.1
2.415	-76.1
2.416	-78.2
2.417	-80
2.418	-81.4
2.419	-82.3
2.42	-82.5
2.421	-82
2.422	-80.7
2.423	-78.6
2.424	-75.7
2.425	-72.2
2.426	-68.2
2.427	-64
2.428	-59.7
2.429	-55.6
2.43	-51.9
2.431	-48.9
2.432	-46.7
2.433	-45.5
2.434	-45.4
2.435	-46.3
2.436	-48.3
2.437	-51.1
2.438	-54.6
2.439	-58.7
2.44	-62.9
2.441	-67.1
2.442	-71
2.443	-74.5
2.444	-77.2
2.445	-79.1
2.446	-80.2
2.447	-80.4
2.448	-79.8
2.449	-78.4
2.45	-76.6
2.451	-74.5
2.452	-72.2
2.453	-70
2.454	-68
2.455	-66.4
2.456	-65.3
2.457	-64.8
2.458	-64.9
2.459	-65.4
2.46	-66.3
2.461	-67.6
2.462	-69
2.463	-70.4
2.464	-71.6
2.465	-72.6
2.466	-73.1
2.467	-73.3
2.468	-73
2.469	-72.3
2.47	-71.2
2.471	-69.8
2.472	-68.3
2.473	-66.7
2.474	-65.3
2.475	-64.1
2.476	-63.2
2.477	-62.6
2.478	-62.5
2.479	-62.8
2.48	-63.5
2.481	-64.6
2.482	-65.9
2.483	-67.3
2.484	-68.7
2.485	-70.1
2.486	-71.3
2.487	-72.2
2.488	-72.6
2.489	-72.7
2.49	-72.2
2.491	-71.3
2.492	-69.9
2.493	-68
2.494	-65.8
2.495	-63.2
2.496	-60.4
2.497	-57.4
2.498	-54.3
2.499	-51.4
2.5	-48.6
2.501	-46
2.502	-43.9
2.503	-42.2
2.504	-41
2.505	-40.5
2.506	-40.6
2.507	-41.4
2.508	-42.9
2.509	-45.1
2.51	-47.8
2.511	-50.9
2.512	-54.4
2.513	-58.1
2.514	-61.7
2.515	-65.2
2.516	-68.3
2.517	-70.8
2.518	-72.6
2.519	-73.5
2.52	-73.6
2.521	-72.7
2.522	-71
2.523	-68.4
2.524	-65.2
2.525	-61.5
2.526	-57.6
2.527	-53.7
2.528	-50
2.529	-46.7
2.53	-44.1
2.531	-42.3
2.532	-41.4
2.533	-41.4
2.534	-42.2
2.535	-43.7
2.536	-45.9
2.537	-48.4
2.538	-51.1
2.539	-53.7
2.54	-56
2.541	-57.8
2.542	-59
2.543	-59.5
2.544	-59.3
2.545	-58.5
2.546	-57.1
2.547	-55.3
2.548	-53.4
2.549	-51.5
2.55	-49.9
2.551	-48.9
2.552	-48.5
2.553	-48.8
2.554	-49.9
2.555	-51.8
2.556	-54.3
2.557	-57.3
2.558	-60.4
2.559	-63.5
2.56	-66.3
2.561	-68.4
2.562	-69.7
2.563	-70
2.564	-69.1
2.565	-67
2.566	-63.9
2.567	-59.7
2.568	-54.8
2.569	-49.5
2.57	-44
2.571	-38.7
2.572	-33.9
2.573	-29.9
2.574	-27
2.575	-25.3
2.576	-25
2.577	-25.9
2.578	-28.1
2.579	-31.4
2.58	-35.5
2.581	-40.2
2.582	-45.2
2.583	-50.2
2.584	-54.9
2.585	-59
2.586	-62.5
2.587	-65.1
2.588	-66.9
2.589	-67.9
2.59	-68.2
2.591	-67.8
2.592	-67
2.593	-65.8
2.594	-64.6
2.595	-63.4
2.596	-62.3
2.597	-61.4
2.598	-60.6
2.599	-60.1
2.6	-59.7
2.601	-59.2
2.602	-58.7
2.603	-58
2.604	-56.9
2.605	-55.4
2.606	-53.4
2.607	-51
2.608	-48.2
2.609	-45.2
2.61	-41.9
2.611	-38.6
2.612	-35.4
2.613	-32.6
2.614	-30.2
2.615	-28.4
2.616	-27.3
2.617	-26.9
2.618	-27.1
2.619	-28
2.62	-29.5
2.621	-31.3
2.622	-33.2
2.623	-35.3
2.624	-37.2
2.625	-38.9
2.626	-40.2
2.627	-41.1
2.628	-41.4
2.629	-41.3
2.63	-40.9
2.631	-40
2.632	-38.9
2.633	-37.6
2.634	-36.1
2.635	-34.6
2.636	-33
2.637	-31.3
2.638	-29.6
2.639	-27.6
2.64	-25.4
2.641	-22.9
2.642	-19.9
2.643	-16.4
2.644	-12.4
2.645	-7.9
2.646	-2.8
2.647	2.6
2.648	8.2
2.649	13.7
2.65	19
2.651	23.9
2.652	28
2.653	31.2
2.654	33.2
2.655	34
2.656	33.6
2.657	31.9
2.658	29
2.659	25.2
2.66	20.7
2.661	15.8
2.662	10.8
2.663	6
2.664	1.8
2.665	-1.7
2.666	-4.2
2.667	-5.6
2.668	-5.9
2.669	-5.2
2.67	-3.5
2.671	-1.1
2.672	1.8
2.673	4.9
2.674	8
2.675	10.7
2.676	13
2.677	14.5
2.678	15.1
2.679	14.9
2.68	13.9
2.681	12.2
2.682	9.8
2.683	6.9
2.684	3.8
2.685	0.6
2.686	-2.5
2.687	-5.4
2.688	-8
2.689	-10.3
2.69	-12.3
2.691	-14
2.692	-15.5
2.693	-17.1
2.694	-18.7
2.695	-20.5
2.696	-22.6
2.697	-25.1
2.698	-28.1
2.699	-31.5
2.7	-35.3
2.701	-39.4
2.702	-43.8
2.703	-48.2
2.704	-52.4
2.705	-56.4
2.706	-60
2.707	-63.1
2.708	-65.7
2.709	-67.5
2.71	-68.7
2.711	-69.2
2.712	-69.1
2.713	-68.5
2.714	-67.4
2.715	-65.9
2.716	-64.2
2.717	-62.3
2.718	-60.3
2.719	-58.3
2.72	-56.3
2.721	-54.5
2.722	-52.8
2.723	-51.2
2.724	-50
2.725	-48.9
2.726	-48.2
2.727	-47.9
2.728	-48
2.729	-48.5
2.73	-49.4
2.731	-50.7
2.732	-52.4
2.733	-54.5
2.734	-56.8
2.735	-59.1
2.736	-61.4
2.737	-63.5
2.738	-65.4
2.739	-66.8
2.74	-67.6
2.741	-67.9
2.742	-67.6
2.743	-67
2.744	-66
2.745	-64.9
2.746	-63.9
2.747	-63.4
2.748	-63.6
2.749	-64.9
2.75	-67.5
2.751	-71.6
2.752	-77.2
2.753	-84.3
2.754	-92.8
2.755	-102.6
2.756	-113.3
2.757	-124.3
2.758	-134.9
2.759	-144.8
2.76	-153.5
2.761	-160.4
2.762	-164.9
2.763	-166
2.764	-164
2.765	-158.6
2.766	-149.9
2.767	-137.6
2.768	-120.9
2.769	-101
2.77	-78
2.771	-52.2
2.772	-23.5
2.773	8.6
2.774	43.2
2.775	80.3
2.776	119.9
2.777	162.2
2.778	207.5
2.779	255.1
2.78	305.2
2.781	357.7
2.782	412.2
2.783	468.1
2.784	524.1
2.785	579.8
2.786	634.3
2.787	686.1
2.788	733.4
2.789	774.4
2.79	808.4
2.791	834.4
2.792	851
2.793	856.7
2.794	850.9
2.795	834.1
2.796	806.9
2.797	769.5
2.798	722.6
2.799	667.5
2.8	606.5
2.801	541.6
2.802	474.5
2.803	407
2.804	341.2
2.805	279
2.806	221.9
2.807	171.1
2.808	127
2.809	90.7
2.81	62.1
2.811	40.6
2.812	25.7
2.813	16.6
2.814	12.9
2.815	12.9
2.816	15.5
2.817	19.5
2.818	23.9
2.819	28.8
2.82	32.8
2.821	35.2
2.822	36
2.823	34.9
2.824	32.7
2.825	29.1
2.826	24.1
2.827	18.2
2.828	11.5
2.829	4.8
2.83	-2
2.831	-8.6
2.832	-15.1
2.833	-21.2
2.834	-26.9
2.835	-32.2
2.836	-37.1
2.837	-41.7
2.838	-45.9
2.839	-49.6
2.84	-53
2.841	-55.8
2.842	-58
2.843	-59.5
2.844	-60.1
2.845	-59.8
2.846	-58.6
2.847	-56.6
2.848	-53.7
2.849	-50
2.85	-45.7
2.851	-41.1
2.852	-36.4
2.853	-31.9
2.854	-27.7
2.855	-24.1
2.856	-21.4
2.857	-19.5
2.858	-18.6
2.859	-18.7
2.86	-19.7
2.861	-21.4
2.862	-23.6
2.863	-26.1
2.864	-28.7
2.865	-31.2
2.866	-33.2
2.867	-34.7
2.868	-35.5
2.869	-35.6
2.87	-35
2.871	-33.8
2.872	-32
2.873	-29.8
2.874	-27.4
2.875	-25
2.876	-22.8
2.877	-20.9
2.878	-19.5
2.879	-18.5
2.88	-18.1
2.881	-18.3
2.882	-18.8
2.883	-19.6
2.884	-20.6
2.885	-21.6
2.886	-22.4
2.887	-22.8
2.888	-22.8
2.889	-22.3
2.89	-21.1
2.891	-19.3
2.892	-16.8
2.893	-13.8
2.894	-10.3
2.895	-6.4
2.896	-2.3
2.897	1.9
2.898	6
2.899	9.9
2.9	13.4
2.901	16.4
2.902	18.9
2.903	20.8
2.904	21.9
2.905	22.3
2.906	22.1
2.907	21.2
2.908	19.7
2.909	17.7
2.91	15.2
2.911	12.5
2.912	9.6
2.913	6.8
2.914	4.1
2.915	1.6
2.916	-0.3
2.917	-1.7
2.918	-2.4
2.919	-2.3
2.92	-1.3
2.921	0.4
2.922	3
2.923	6.4
2.924	10.5
2.925	15
2.926	19.8
2.927	24.9
2.928	29.9
2.929	34.7
2.93	39
2.931	42.9
2.932	46.1
2.933	48.6
2.934	50.3
2.935	51.3
2.936	51.7
2.937	51.6
2.938	51.1
2.939	50.3
2.94	49.4
2.941	48.6
2.942	48
2.943	47.7
2.944	47.8
2.945	48.2
2.946	48.9
2.947	50
2.948	51.4
2.949	52.8
2.95	54.3
2.951	55.6
2.952	56.7
2.953	57.7
2.954	58.3
2.955	58.6
2.956	58.6
2.957	58.5
2.958	58.4
2.959	58.4
2.96	58.5
2.961	59
2.962	60.1
2.963	61.7
2.964	64.1
2.965	67.1
2.966	70.8
2.967	75.1
2.968	80
2.969	85.2
2.97	90.6
2.971	95.9
2.972	101.1
2.973	106.1
2.974	110.4
2.975	114.2
2.976	117.4
2.977	119.8
2.978	121.8
2.979	123.1
2.98	124
2.981	124.6
2.982	125
2.983	125.6
2.984	126.2
2.985	127.1
2.986	128.4
2.987	130.1
2.988	132.4
2.989	134.9
2.99	137.9
2.991	141.1
2.992	144.5
2.993	148
2.994	151.4
2.995	154.6
2.996	157.6
2.997	160.2
2.998	162.5
2.999	164.3
3	165.7
3.001	166.7
3.002	167.4
3.003	167.9
3.004	168.1
3.005	168.1
3.006	168.1
3.007	168
3.008	167.8
3.009	167.6
3.01	167.4
3.011	167.2
3.012	167
3.013	166.7
3.014	166.4
3.015	166.1
3.016	165.8
3.017	165.5
3.018	165.3
3.019	165.2
3.02	165.2
3.021	165.5
3.022	165.9
3.023	166.5
3.024	167.3
3.025	168.2
3.026	169.3
3.027	170.3
3.028	171.1
3.029	171.7
3.03	172
3.031	171.7
3.032	170.9
3.033	169.3
3.034	167.1
3.035	164.1
3.036	160.5
3.037	156.3
3.038	151.6
3.039	146.6
3.04	141.4
3.041	136.3
3.042	131.4
3.043	126.8
3.044	122.6
3.045	119
3.046	116
3.047	113.6
3.048	111.5
3.049	109.8
3.05	108.3
3.051	106.9
3.052	105.3
3.053	103.3
3.054	100.9
3.055	97.9
3.056	94.1
3.057	89.7
3.058	84.4
3.059	78.5
3.06	72.1
3.061	65.3
3.062	58.3
3.063	51
3.064	43.8
3.065	36.9
3.066	30.3
3.067	24
3.068	18
3.069	12.5
3.07	7.3
3.071	2.5
3.072	-2.2
3.073	-6.9
3.074	-11.4
3.075	-15.9
3.076	-20.5
3.077	-25.1
3.078	-29.8
3.079	-34.3
3.08	-38.7
3.081	-42.7
3.082	-46.4
3.083	-49.7
3.084	-52.2
3.085	-54.1
3.086	-55.4
3.087	-56
3.088	-56.2
3.089	-55.9
3.09	-55.3
3.091	-54.7
3.092	-54.2
3.093	-54
3.094	-54.2
3.095	-54.9
3.096	-56.3
3.097	-58.3
3.098	-60.9
3.099	-64
3.1	-67.4
3.101	-71
3.102	-74.6
3.103	-77.9
3.104	-80.7
3.105	-83
3.106	-84.6
3.107	-85.4
3.108	-85.4
3.109	-84.7
3.11	-83.3
3.111	-81.6
3.112	-79.5
3.113	-77.4
3.114	-75.3
3.115	-73.5
3.116	-72.1
3.117	-71.2
3.118	-70.9
3.119	-71
3.12	-71.6
3.121	-72.5
3.122	-73.6
3.123	-74.9
3.124	-76.1
3.125	-77.1
3.126	-77.8
3.127	-78.3
3.128	-78.4
3.129	-78.3
3.13	-78.1
3.131	-77.7
3.132	-77.4
3.133	-77.4
3.134	-77.6
3.135	-78.3
3.136	-79.5
3.137	-81.2
3.138	-83.3
3.139	-85.8
3.14	-88.6
3.141	-91.4
3.142	-94.1
3.143	-96.5
3.144	-98.4
3.145	-99.7
3.146	-100.2
3.147	-99.9
3.148	-98.9
3.149	-97.1
3.15	-94.8
3.151	-92
3.152	-89.1
3.153	-86.2
3.154	-83.5
3.155	-81.3
3.156	-79.6
3.157	-78.7
3.158	-78.6
3.159	-79.3
3.16	-80.7
3.161	-82.6
3.162	-85
3.163	-87.6
3.164	-90.2
3.165	-92.6
3.166	-94.6
3.167	-96.2
3.168	-97
3.169	-97.2
3.17	-96.6
3.171	-95.5
3.172	-93.7
3.173	-91.5
3.174	-88.9
3.175	-86.3
3.176	-83.6
3.177	-81
3.178	-78.7
3.179	-76.7
3.18	-75.2
3.181	-74
3.182	-73.2
3.183	-72.7
3.184	-72.6
3.185	-72.7
3.186	-73
3.187	-73.4
3.188	-73.8
3.189	-74.3
3.19	-74.8
3.191	-75.3
3.192	-75.6
3.193	-75.9
3.194	-76.2
3.195	-76.3
3.196	-76.2
3.197	-76
3.198	-75.7
3.199	-75.1
3.2	-74.2
3.201	-73.1
3.202	-71.7
3.203	-70.1
3.204	-68.3
3.205	-66.4
3.206	-64.4
3.207	-62.5
3.208	-60.8
3.209	-59.5
3.21	-58.5
3.211	-58.2
3.212	-58.4
3.213	-59.2
3.214	-60.7
3.215	-62.8
3.216	-65.3
3.217	-68.1
3.218	-71
3.219	-73.8
3.22	-76.3
3.221	-78.3
3.222	-79.6
3.223	-80.1
3.224	-79.7
3.225	-78.5
3.226	-76.4
3.227	-73.6
3.228	-70.3
3.229	-66.7
3.23	-63.1
3.231	-59.6
3.232	-56.6
3.233	-54.2
3.234	-52.6
3.235	-51.9
3.236	-52.1
3.237	-53.2
3.238	-55
3.239	-57.3
3.24	-60
3.241	-62.7
3.242	-65.3
3.243	-67.5
3.244	-69.1
3.245	-70
3.246	-70
3.247	-69.1
3.248	-67.4
3.249	-64.9
3.25	-61.9
3.251	-58.5
3.252	-55
3.253	-51.4
3.254	-48.1
3.255	-45.2
3.256	-42.7
3.257	-40.9
3.258	-39.6
3.259	-38.9
3.26	-38.7
3.261	-38.8
3.262	-39.3
3.263	-39.9
3.264	-40.6
3.265	-41.2
3.266	-41.8
3.267	-42.2
3.268	-42.7
3.269	-43.1
3.27	-43.5
3.271	-44.2
3.272	-45
3.273	-46.2
3.274	-47.7
3.275	-49.7
3.276	-51.9
3.277	-54.5
3.278	-57.3
3.279	-60.1
3.28	-62.7
3.281	-65.2
3.282	-67.2
3.283	-68.7
3.284	-69.6
3.285	-69.8
3.286	-69.3
3.287	-68.3
3.288	-66.7
3.289	-64.9
3.29	-62.8
3.291	-60.9
3.292	-59.1
3.293	-57.8
3.294	-57
3.295	-56.8
3.296	-57.2
3.297	-58.2
3.298	-59.8
3.299	-61.7
3.3	-63.7
3.301	-65.8
3.302	-67.7
3.303	-69.2
3.304	-70.1
3.305	-70.4
3.306	-70.1
3.307	-69
3.308	-67.4
3.309	-65.3
3.31	-62.9
3.311	-60.3
3.312	-57.8
3.313	-55.6
3.314	-53.8
3.315	-52.4
3.316	-51.7
3.317	-51.6
3.318	-52
3.319	-52.8
3.32	-53.9
3.321	-55.1
3.322	-56.3
3.323	-57.3
3.324	-57.8
3.325	-57.9
3.326	-57.5
3.327	-56.5
3.328	-55
3.329	-53.2
3.33	-51.1
3.331	-48.9
3.332	-46.8
3.333	-45
3.334	-43.7
3.335	-42.9
3.336	-42.7
3.337	-43.1
3.338	-44
3.339	-45.4
3.34	-47.1
3.341	-48.9
3.342	-50.8
3.343	-52.4
3.344	-53.6
3.345	-54.4
3.346	-54.7
3.347	-54.4
3.348	-53.6
3.349	-52.3
3.35	-50.8
3.351	-49.2
3.352	-47.6
3.353	-46.2
3.354	-45.1
3.355	-44.4
3.356	-44.2
3.357	-44.5
3.358	-45.2
3.359	-46.3
3.36	-47.6
3.361	-48.9
3.362	-50.1
3.363	-51
3.364	-51.6
3.365	-51.7
3.366	-51.4
3.367	-50.6
3.368	-49.4
3.369	-47.9
3.37	-46.4
3.371	-45
3.372	-43.9
3.373	-43.2
3.374	-43.1
3.375	-43.6
3.376	-44.8
3.377	-46.5
3.378	-48.8
3.379	-51.4
3.38	-54.1
3.381	-56.7
3.382	-58.9
3.383	-60.5
3.384	-61.5
3.385	-61.5
3.386	-60.7
3.387	-59.1
3.388	-56.7
3.389	-53.7
3.39	-50.5
3.391	-47.1
3.392	-44.1
3.393	-41.5
3.394	-39.7
3.395	-38.7
3.396	-38.7
3.397	-39.7
3.398	-41.7
3.399	-44.3
3.4	-47.4
3.401	-50.7
3.402	-53.9
3.403	-56.7
3.404	-58.8
3.405	-60
3.406	-60.1
3.407	-59.2
3.408	-57.2
3.409	-54.4
3.41	-50.9
3.411	-47
3.412	-43
3.413	-39.2
3.414	-36
3.415	-33.5
3.416	-32
3.417	-31.5
3.418	-32
3.419	-33.4
3.42	-35.4
3.421	-37.8
3.422	-40.2
3.423	-42.4
3.424	-44
3.425	-44.6
3.426	-44.3
3.427	-42.8
3.428	-40.1
3.429	-36.6
3.43	-32.3
3.431	-27.5
3.432	-22.8
3.433	-18.4
3.434	-14.8
3.435	-12.5
3.436	-11.5
3.437	-12.2
3.438	-14.5
3.439	-18.4
3.44	-23.7
3.441	-30.1
3.442	-37.1
3.443	-44.2
3.444	-51
3.445	-57
3.446	-61.8
3.447	-64.9
3.448	-66.1
3.449	-65.4
3.45	-62.8
3.451	-58.4
3.452	-52.6
3.453	-45.6
3.454	-37.9
3.455	-29.9
3.456	-22.2
3.457	-15
3.458	-8.6
3.459	-3.3
3.46	0.8
3.461	3.8
3.462	5.8
3.463	7
3.464	7.5
3.465	7.8
3.466	8.1
3.467	8.7
3.468	9.7
3.469	11.2
3.47	13.3
3.471	15.9
3.472	18.9
3.473	21.9
3.474	24.8
3.475	27.1
3.476	28.8
3.477	29.5
3.478	29.1
3.479	27.5
3.48	24.7
3.481	20.9
3.482	16.4
3.483	11.4
3.484	6.2
3.485	1.4
3.486	-2.8
3.487	-6
3.488	-7.9
3.489	-8.4
3.49	-7.3
3.491	-4.8
3.492	-1
3.493	3.9
3.494	9.5
3.495	15.4
3.496	21.3
3.497	26.7
3.498	31.3
3.499	34.8
3.5	37.1
3.501	37.9
3.502	37.4
3.503	35.6
3.504	32.7
3.505	28.9
3.506	24.5
3.507	19.9
3.508	15.1
3.509	10.6
3.51	6.4
3.511	2.6
3.512	-0.6
3.513	-3.5
3.514	-6.1
3.515	-8.5
3.516	-10.9
3.517	-13.4
3.518	-16.3
3.519	-19.6
3.52	-23.4
3.521	-27.6
3.522	-32.2
3.523	-37.2
3.524	-42.1
3.525	-46.9
3.526	-51.4
3.527	-55.2
3.528	-58.4
3.529	-60.5
3.53	-61.6
3.531	-61.7
3.532	-60.8
3.533	-59.1
3.534	-56.6
3.535	-53.8
3.536	-50.7
3.537	-47.7
3.538	-45.1
3.539	-42.9
3.54	-41.5
3.541	-40.9
3.542	-41.3
3.543	-42.5
3.544	-44.5
3.545	-47.1
3.546	-50.3
3.547	-53.9
3.548	-57.5
3.549	-61.1
3.55	-64.4
3.551	-67.3
3.552	-69.6
3.553	-71.3
3.554	-72.2
3.555	-72.4
3.556	-71.9
3.557	-70.8
3.558	-69.1
3.559	-67
3.56	-64.5
3.561	-61.8
3.562	-59.1
3.563	-56.6
3.564	-54.5
3.565	-52.9
3.566	-51.9
3.567	-51.9
3.568	-53
3.569	-55.4
3.57	-59.1
3.571	-64.3
3.572	-70.9
3.573	-78.8
3.574	-87.9
3.575	-98.2
3.576	-109.3
3.577	-120.8
3.578	-131.9
3.579	-142.5
3.58	-152.2
3.581	-160.4
3.582	-166.6
3.583	-169.7
3.584	-169.8
3.585	-166.7
3.586	-160.3
3.587	-150.1
3.588	-135.3
3.589	-116.7
3.59	-94.4
3.591	-68.6
3.592	-39.2
3.593	-5.7
3.594	30.8
3.595	70.4
3.596	112.9
3.597	158.2
3.598	206.5
3.599	256.9
3.6	309.5
3.601	364
3.602	419.9
3.603	476.6
3.604	532.8
3.605	588.2
3.606	641.8
3.607	692.5
3.608	738.3
3.609	777.8
3.61	810.2
3.611	834.7
3.612	849.9
3.613	854.5
3.614	847.6
3.615	829.9
3.616	801.8
3.617	763.6
3.618	715.7
3.619	659.5
3.62	597.3
3.621	531.1
3.622	462.5
3.623	393.5
3.624	326.2
3.625	262.8
3.626	204.8
3.627	153.4
3.628	109.3
3.629	73.6
3.63	46
3.631	26.2
3.632	13.4
3.633	6.7
3.634	5.5
3.635	8.1
3.636	12.8
3.637	18.6
3.638	24.2
3.639	29.5
3.64	33.2
3.641	34.7
3.642	33.9
3.643	30.8
3.644	26.5
3.645	20.8
3.646	14.1
3.647	7.1
3.648	0.3
3.649	-5.4
3.65	-10.1
3.651	-13.5
3.652	-15.6
3.653	-16.4
3.654	-16.2
3.655	-15.3
3.656	-14
3.657	-12.8
3.658	-12
3.659	-12
3.66	-12.8
3.661	-14.7
3.662	-17.4
3.663	-20.9
3.664	-24.9
3.665	-29
3.666	-33
3.667	-36.3
3.668	-38.8
3.669	-40.1
3.67	-40
3.671	-38.6
3.672	-35.9
3.673	-32.1
3.674	-27.4
3.675	-22.3
3.676	-17.2
3.677	-12.3
3.678	-8.2
3.679	-5
3.68	-3.1
3.681	-2.5
3.682	-3.2
3.683	-5.1
3.684	-7.9
3.685	-11.5
3.686	-15.5
3.687	-19.4
3.688	-23
3.689	-26
3.69	-28.1
3.691	-29.2
3.692	-29.3
3.693	-28.3
3.694	-26.4
3.695	-23.9
3.696	-20.9
3.697	-17.8
3.698	-14.8
3.699	-12.1
3.7	-10
3.701	-8.6
3.702	-7.8
3.703	-7.8
3.704	-8.4
3.705	-9.5
3.706	-10.8
3.707	-12.2
3.708	-13.4
3.709	-14.3
3.71	-14.6
3.711	-14.4
3.712	-13.6
3.713	-12.1
3.714	-10.1
3.715	-7.7
3.716	-5
3.717	-2.2
3.718	0.6
3.719	3.1
3.72	5.3
3.721	7.2
3.722	8.6
3.723	9.6
3.724	10.2
3.725	10.6
3.726	10.8
3.727	10.9
3.728	11.1
3.729	11.4
3.73	11.8
3.731	12.4
3.732	13.2
3.733	14.1
3.734	15
3.735	15.8
3.736	16.5
3.737	17
3.738	17.3
3.739	17.3
3.74	17
3.741	16.6
3.742	16.1
3.743	15.6
3.744	15.4
3.745	15.4
3.746	15.9
3.747	17
3.748	18.8
3.749	21.1
3.75	24.1
3.751	27.5
3.752	31.2
3.753	35.1
3.754	38.9
3.755	42.4
3.756	45.3
3.757	47.6
3.758	49.1
3.759	49.7
3.76	49.4
3.761	48.4
3.762	46.8
3.763	44.9
3.764	42.9
3.765	41.1
3.766	39.7
3.767	39.1
3.768	39.6
3.769	41.1
3.77	43.9
3.771	47.9
3.772	53
3.773	59.2
3.774	65.9
3.775	73.1
3.776	80.3
3.777	87.3
3.778	93.6
3.779	99.1
3.78	103.4
3.781	106.4
3.782	108.1
3.783	108.5
3.784	107.7
3.785	105.9
3.786	103.3
3.787	100.3
3.788	97.1
3.789	94.1
3.79	91.5
3.791	89.6
3.792	88.6
3.793	88.7
3.794	89.9
3.795	92.2
3.796	95.6
3.797	99.9
3.798	105.1
3.799	110.8
3.8	116.9
3.801	123.1
3.802	129.4
3.803	135.4
3.804	141
3.805	146.1
3.806	150.5
3.807	154.3
3.808	157.4
3.809	159.9
3.81	161.6
3.811	162.8
3.812	163.5
3.813	163.8
3.814	163.8
3.815	163.5
3.816	163.2
3.817	162.8
3.818	162.6
3.819	162.5
3.82	162.7
3.821	163.2
3.822	164
3.823	165.3
3.824	166.9
3.825	168.9
3.826	171.1
3.827	173.6
3.828	176.3
3.829	178.9
3.83	181.4
3.831	183.6
3.832	185.5
3.833	187
3.834	187.9
3.835	188.3
3.836	188.1
3.837	187.4
3.838	186.2
3.839	184.6
3.84	182.8
3.841	180.8
3.842	178.9
3.843	177.1
3.844	175.6
3.845	174.4
3.846	173.7
3.847	173.3
3.848	173.3
3.849	173.6
3.85	174
3.851	174.4
3.852	174.7
3.853	174.6
3.854	174
3.855	172.8
3.856	170.9
3.857	168.2
3.858	164.8
3.859	160.7
3.86	156
3.861	151
3.862	145.7
3.863	140.3
3.864	135.1
3.865	130.3
3.866	125.9
3.867	122
3.868	118.7
3.869	116
3.87	113.9
3.871	112.2
3.872	110.7
3.873	109.1
3.874	107.6
3.875	105.7
3.876	103.4
3.877	100.5
3.878	96.9
3.879	92.6
3.88	87.7
3.881	82.2
3.882	76.1
3.883	69.6
3.884	62.9
3.885	56.2
3.886	49.5
3.887	42.9
3.888	36.4
3.889	30.3
3.89	24.4
3.891	18.8
3.892	13.3
3.893	7.9
3.894	2.6
3.895	-2.7
3.896	-8
3.897	-13.4
3.898	-18.9
3.899	-24.2
3.9	-29.4
3.901	-34.3
3.902	-38.9
3.903	-43.1
3.904	-46.6
3.905	-49.4
3.906	-51.5
3.907	-52.9
3.908	-53.8
3.909	-54
3.91	-53.9
3.911	-53.6
3.912	-53.3
3.913	-53.3
3.914	-53.6
3.915	-54.4
3.916	-55.8
3.917	-57.9
3.918	-60.6
3.919	-63.7
3.92	-67.2
3.921	-70.8
3.922	-74.2
3.923	-77.4
3.924	-80
3.925	-81.8
3.926	-82.7
3.927	-82.7
3.928	-81.8
3.929	-80.1
3.93	-77.8
3.931	-75.2
3.932	-72.4
3.933	-69.8
3.934	-67.7
3.935	-66.3
3.936	-65.8
3.937	-66.3
3.938	-67.9
3.939	-70.4
3.94	-73.7
3.941	-77.6
3.942	-81.7
3.943	-85.8
3.944	-89.5
3.945	-92.4
3.946	-94.5
3.947	-95.3
3.948	-95
3.949	-93.4
3.95	-90.8
3.951	-87.3
3.952	-83.2
3.953	-78.8
3.954	-74.6
3.955	-70.8
3.956	-67.7
3.957	-65.7
3.958	-64.9
3.959	-65.2
3.96	-66.7
3.961	-69.3
3.962	-72.6
3.963	-76.3
3.964	-80.1
3.965	-83.7
3.966	-86.7
3.967	-88.8
3.968	-89.9
3.969	-89.7
3.97	-88.4
3.971	-86
3.972	-82.7
3.973	-78.7
3.974	-74.4
3.975	-70.2
3.976	-66.3
3.977	-63.1
3.978	-60.8
3.979	-59.6
3.98	-59.5
3.981	-60.4
3.982	-62.3
3.983	-65
3.984	-68.1
3.985	-71.5
3.986	-74.7
3.987	-77.6
3.988	-79.9
3.989	-81.5
3.99	-82.2
3.991	-82.2
3.992	-81.4
3.993	-80.1
3.994	-78.4
3.995	-76.6
3.996	-74.8
3.997	-73.4
3.998	-72.3
3.999	-71.8
4	-71.8
4.001	-72.3
4.002	-73
4.003	-73.9
4.004	-74.7
4.005	-75.1
4.006	-74.9
4.007	-74
4.008	-72.2
4.009	-69.5
4.01	-65.9
4.011	-61.6
4.012	-56.8
4.013	-51.8
4.014	-47
4.015	-42.7
4.016	-39.3
4.017	-37
4.018	-36.1
4.019	-36.6
4.02	-38.6
4.021	-42
4.022	-46.4
4.023	-51.7
4.024	-57.4
4.025	-63
4.026	-68.2
4.027	-72.6
4.028	-75.7
4.029	-77.4
4.03	-77.5
4.031	-76.1
4.032	-73.2
4.033	-69.1
4.034	-64.1
4.035	-58.6
4.036	-53
4.037	-47.8
4.038	-43.3
4.039	-39.9
4.04	-37.7
4.041	-36.9
4.042	-37.5
4.043	-39.3
4.044	-42
4.045	-45.4
4.046	-49.1
4.047	-52.7
4.048	-55.9
4.049	-58.4
4.05	-59.9
4.051	-60.3
4.052	-59.6
4.053	-57.9
4.054	-55.3
4.055	-52.2
4.056	-48.7
4.057	-45.4
4.058	-42.4
4.059	-40.1
4.06	-38.6
4.061	-38.2
4.062	-38.8
4.063	-40.3
4.064	-42.5
4.065	-45.2
4.066	-48.1
4.067	-50.9
4.068	-53.1
4.069	-54.5
4.07	-55
4.071	-54.2
4.072	-52.3
4.073	-49.2
4.074	-45.2
4.075	-40.4
4.076	-35.3
4.077	-30.2
4.078	-25.5
4.079	-21.4
4.08	-18.4
4.081	-16.6
4.082	-16.2
4.083	-17.1
4.084	-19.2
4.085	-22.5
4.086	-26.5
4.087	-30.9
4.088	-35.6
4.089	-40
4.09	-43.8
4.091	-46.9
4.092	-49
4.093	-50.1
4.094	-50.2
4.095	-49.5
4.096	-48.1
4.097	-46.3
4.098	-44.5
4.099	-42.8
4.1	-41.7
4.101	-41.3
4.102	-41.9
4.103	-43.4
4.104	-45.9
4.105	-49.3
4.106	-53.4
4.107	-57.9
4.108	-62.5
4.109	-66.9
4.11	-70.7
4.111	-73.6
4.112	-75.5
4.113	-76.2
4.114	-75.5
4.115	-73.5
4.116	-70.4
4.117	-66.3
4.118	-61.4
4.119	-56.2
4.12	-51
4.121	-45.9
4.122	-41.5
4.123	-37.9
4.124	-35.3
4.125	-33.8
4.126	-33.5
4.127	-34.3
4.128	-36.1
4.129	-38.7
4.13	-41.9
4.131	-45.5
4.132	-49.1
4.133	-52.6
4.134	-55.6
4.135	-58.1
4.136	-59.8
4.137	-60.6
4.138	-60.6
4.139	-59.8
4.14	-58.2
4.141	-55.9
4.142	-53.1
4.143	-49.8
4.144	-46.4
4.145	-42.9
4.146	-39.5
4.147	-36.3
4.148	-33.5
4.149	-31.2
4.15	-29.5
4.151	-28.4
4.152	-28
4.153	-28.3
4.154	-29.4
4.155	-31
4.156	-33.3
4.157	-36.1
4.158	-39.3
4.159	-42.8
4.16	-46.5
4.161	-50
4.162	-53.4
4.163	-56.4
4.164	-58.8
4.165	-60.5
4.166	-61.4
4.167	-61.4
4.168	-60.4
4.169	-58.5
4.17	-55.7
4.171	-52.2
4.172	-48
4.173	-43.4
4.174	-38.6
4.175	-33.8
4.176	-29.3
4.177	-25.3
4.178	-22.1
4.179	-19.6
4.18	-18.1
4.181	-17.7
4.182	-18.2
4.183	-19.6
4.184	-21.9
4.185	-24.8
4.186	-28.1
4.187	-31.6
4.188	-35.1
4.189	-38.4
4.19	-41.4
4.191	-43.7
4.192	-45.5
4.193	-46.5
4.194	-46.9
4.195	-46.7
4.196	-46
4.197	-44.8
4.198	-43.5
4.199	-42
4.2	-40.6
4.201	-39.4
4.202	-38.4
4.203	-37.9
4.204	-37.6
4.205	-37.8
4.206	-38.3
4.207	-39
4.208	-39.8
4.209	-40.7
4.21	-41.5
4.211	-42
4.212	-42.3
4.213	-42.3
4.214	-41.9
4.215	-41.1
4.216	-39.9
4.217	-38.5
4.218	-36.8
4.219	-35.1
4.22	-33.4
4.221	-31.8
4.222	-30.5
4.223	-29.4
4.224	-28.8
4.225	-28.5
4.226	-28.7
4.227	-29.3
4.228	-30.2
4.229	-31.4
4.23	-32.7
4.231	-33.9
4.232	-35.1
4.233	-36
4.234	-36.4
4.235	-36.4
4.236	-35.7
4.237	-34.5
4.238	-32.5
4.239	-29.9
4.24	-26.8
4.241	-23.2
4.242	-19.3
4.243	-15.2
4.244	-11.2
4.245	-7.5
4.246	-4.3
4.247	-1.7
4.248	0
4.249	0.8
4.25	0.4
4.251	-1.1
4.252	-3.6
4.253	-7.1
4.254	-11.4
4.255	-16.3
4.256	-21.6
4.257	-26.9
4.258	-31.9
4.259	-36.3
4.26	-39.7
4.261	-42
4.262	-42.8
4.263	-42
4.264	-39.7
4.265	-35.7
4.266	-30.3
4.267	-23.6
4.268	-15.9
4.269	-7.5
4.27	1.1
4.271	9.7
4.272	17.7
4.273	25
4.274	31.2
4.275	36
4.276	39.4
4.277	41.3
4.278	41.8
4.279	41
4.28	39.1
4.281	36.5
4.282	33.5
4.283	30.4
4.284	27.4
4.285	24.9
4.286	23.1
4.287	22.2
4.288	22.2
4.289	23.1
4.29	24.8
4.291	27.2
4.292	30
4.293	33
4.294	35.9
4.295	38.5
4.296	40.6
4.297	41.9
4.298	42.4
4.299	42
4.3	40.8
4.301	38.9
4.302	36.3
4.303	33.2
4.304	29.8
4.305	26.4
4.306	23.2
4.307	20.1
4.308	17.3
4.309	14.9
4.31	12.8
4.311	11
4.312	9.4
4.313	7.6
4.314	5.7
4.315	3.5
4.316	0.7
4.317	-2.7
4.318	-6.8
4.319	-11.6
4.32	-16.9
4.321	-22.7
4.322	-28.9
4.323	-35.2
4.324	-41.2
4.325	-46.8
4.326	-51.8
4.327	-55.9
4.328	-59
4.329	-60.9
4.33	-61.6
4.331	-61.2
4.332	-59.7
4.333	-57.4
4.334	-54.3
4.335	-50.8
4.336	-47
4.337	-43.3
4.338	-39.9
4.339	-36.8
4.34	-34.4
4.341	-32.8
4.342	-31.9
4.343	-31.8
4.344	-32.5
4.345	-33.8
4.346	-35.8
4.347	-38.2
4.348	-41
4.349	-43.9
4.35	-47
4.351	-49.9
4.352	-52.8
4.353	-55.3
4.354	-57.5
4.355	-59.3
4.356	-60.5
4.357	-61.3
4.358	-61.4
4.359	-60.9
4.36	-59.8
4.361	-57.9
4.362	-55.5
4.363	-52.6
4.364	-49.2
4.365	-45.5
4.366	-41.5
4.367	-37.6
4.368	-34.1
4.369	-31
4.37	-28.7
4.371	-27.5
4.372	-27.4
4.373	-28.8
4.374	-31.7
4.375	-36.2
4.376	-42.3
4.377	-49.9
4.378	-58.5
4.379	-68.2
4.38	-78.6
4.381	-89.4
4.382	-99.9
4.383	-109.3
4.384	-117.6
4.385	-124.4
4.386	-129.4
4.387	-131.8
4.388	-130.7
4.389	-126.6
4.39	-119
4.391	-108
4.392	-93.1
4.393	-73.5
4.394	-49.7
4.395	-21.8
4.396	10.3
4.397	46.8
4.398	88
4.399	133.2
4.4	182.2
4.401	234.8
4.402	290.4
4.403	348.4
4.404	407.6
4.405	467.3
4.406	526.6
4.407	584.1
4.408	638
4.409	686.7
4.41	729.3
4.411	764.8
4.412	791.7
4.413	808.4
4.414	814
4.415	808.6
4.416	792.6
4.417	765.8
4.418	728.2
4.419	680.9
4.42	625.7
4.421	564.2
4.422	498.2
4.423	428.9
4.424	358.7
4.425	289.5
4.426	223.2
4.427	161.2
4.428	104.6
4.429	55.1
4.43	12.9
4.431	-21.8
4.432	-48.7
4.433	-68.4
4.434	-80.5
4.435	-86.6
4.436	-87.6
4.437	-84.5
4.438	-78.2
4.439	-69
4.44	-58.5
4.441	-47.6
4.442	-37
4.443	-27.2
4.444	-17.8
4.445	-9.6
4.446	-3
4.447	2.2
4.448	6
4.449	8.9
4.45	10.8
4.451	11.7
4.452	11.8
4.453	11.3
4.454	10.1
4.455	8.6
4.456	6.6
4.457	4.3
4.458	1.6
4.459	-1.3
4.46	-4.5
4.461	-7.7
4.462	-10.8
4.463	-13.9
4.464	-16.7
4.465	-19.2
4.466	-21.3
4.467	-22.8
4.468	-23.7
4.469	-23.9
4.47	-23.6
4.471	-22.8
4.472	-21.5
4.473	-19.9
4.474	-18.1
4.475	-16.2
4.476	-14.5
4.477	-13
4.478	-11.8
4.479	-11
4.48	-10.6
4.481	-10.6
4.482	-11
4.483	-11.7
4.484	-12.6
4.485	-13.6
4.486	-14.6
4.487	-15.4
4.488	-16.1
4.489	-16.4
4.49	-16.4
4.491	-16.1
4.492	-15.4
4.493	-14.2
4.494	-12.8
4.495	-11
4.496	-8.9
4.497	-6.6
4.498	-4
4.499	-1.3
4.5	1.6
4.501	4.6
4.502	7.8
4.503	11
4.504	14.2
4.505	17.5
4.506	20.7
4.507	23.7
4.508	26.5
4.509	28.9
4.51	30.8
4.511	32.2
4.512	33
4.513	33.1
4.514	32.4
4.515	31
4.516	28.9
4.517	26.2
4.518	23
4.519	19.5
4.52	15.8
4.521	12.2
4.522	8.8
4.523	5.9
4.524	3.5
4.525	1.9
4.526	1.1
4.527	1.2
4.528	2.1
4.529	3.9
4.53	6.4
4.531	9.4
4.532	13
4.533	16.9
4.534	20.9
4.535	25
4.536	28.9
4.537	32.6
4.538	36
4.539	39.1
4.54	41.8
4.541	44.1
4.542	46.1
4.543	47.8
4.544	49.2
4.545	50.4
4.546	51.3
4.547	52.1
4.548	52.8
4.549	53.4
4.55	53.8
4.551	54.1
4.552	54.4
4.553	54.7
4.554	54.9
4.555	55.1
4.556	55.5
4.557	55.9
4.558	56.5
4.559	57.3
4.56	58.3
4.561	59.6
4.562	61.2
4.563	63.1
4.564	65.2
4.565	67.4
4.566	69.7
4.567	72
4.568	74.2
4.569	76.2
4.57	77.9
4.571	79.3
4.572	80.4
4.573	81.2
4.574	81.7
4.575	81.9
4.576	82.1
4.577	82.3
4.578	82.6
4.579	83.2
4.58	84.1
4.581	85.4
4.582	87.1
4.583	89.2
4.584	91.7
4.585	94.4
4.586	97.2
4.587	100
4.588	102.6
4.589	104.8
4.59	106.5
4.591	107.7
4.592	108.2
4.593	108.3
4.594	107.8
4.595	107
4.596	106
4.597	105.2
4.598	104.7
4.599	104.9
4.6	105.8
4.601	107.6
4.602	110.6
4.603	114.7
4.604	119.7
4.605	125.7
4.606	132.3
4.607	139.4
4.608	146.6
4.609	153.6
4.61	160
4.611	165.6
4.612	170.1
4.613	173.6
4.614	175.8
4.615	176.8
4.616	176.8
4.617	176
4.618	174.6
4.619	172.9
4.62	171.3
4.621	170.1
4.622	169.5
4.623	169.7
4.624	170.7
4.625	172.7
4.626	175.5
4.627	179
4.628	182.9
4.629	187
4.63	190.9
4.631	194.4
4.632	197.2
4.633	199
4.634	199.8
4.635	199.5
4.636	198.2
4.637	195.9
4.638	192.9
4.639	189.5
4.64	186
4.641	182.6
4.642	179.8
4.643	177.6
4.644	176.3
4.645	176.1
4.646	176.9
4.647	178.5
4.648	180.9
4.649	183.8
4.65	186.8
4.651	189.7
4.652	192.2
4.653	193.8
4.654	194.5
4.655	194
4.656	192.2
4.657	189.2
4.658	185
4.659	179.7
4.66	173.8
4.661	167.3
4.662	160.6
4.663	153.8
4.664	147.4
4.665	141.5
4.666	136.3
4.667	131.9
4.668	128
4.669	124.8
4.67	122.2
4.671	120
4.672	117.8
4.673	115.5
4.674	113.1
4.675	110.2
4.676	106.7
4.677	102.6
4.678	97.8
4.679	92.4
4.68	86.5
4.681	80.2
4.682	73.6
4.683	66.8
4.684	60.2
4.685	53.8
4.686	47.6
4.687	41.9
4.688	36.5
4.689	31.6
4.69	27.2
4.691	23.3
4.692	19.6
4.693	16.2
4.694	13
4.695	10
4.696	7
4.697	4
4.698	1
4.699	-2
4.7	-5
4.701	-8.1
4.702	-11.2
4.703	-14.4
4.704	-17.6
4.705	-20.8
4.706	-24
4.707	-27.3
4.708	-30.8
4.709	-34.3
4.71	-37.8
4.711	-41.4
4.712	-45
4.713	-48.7
4.714	-52.2
4.715	-55.5
4.716	-58.5
4.717	-61.2
4.718	-63.5
4.719	-65.2
4.72	-66.3
4.721	-66.9
4.722	-67
4.723	-66.6
4.724	-65.9
4.725	-64.9
4.726	-63.9
4.727	-63.1
4.728	-62.5
4.729	-62.4
4.73	-62.9
4.731	-64.1
4.732	-66
4.733	-68.5
4.734	-71.5
4.735	-74.9
4.736	-78.5
4.737	-82
4.738	-85.1
4.739	-87.7
4.74	-89.5
4.741	-90.3
4.742	-90
4.743	-88.6
4.744	-86
4.745	-82.5
4.746	-78.1
4.747	-73.2
4.748	-68
4.749	-62.7
4.75	-57.8
4.751	-53.5
4.752	-50.1
4.753	-47.7
4.754	-46.4
4.755	-46.3
4.756	-47.3
4.757	-49.3
4.758	-52.2
4.759	-55.7
4.76	-59.6
4.761	-63.6
4.762	-67.4
4.763	-70.9
4.764	-73.9
4.765	-76.2
4.766	-77.9
4.767	-78.9
4.768	-79.3
4.769	-79.2
4.77	-78.7
4.771	-78
4.772	-77.2
4.773	-76.5
4.774	-76
4.775	-75.7
4.776	-75.7
4.777	-76.1
4.778	-76.6
4.779	-77.3
4.78	-78.1
4.781	-78.9
4.782	-79.6
4.783	-79.9
4.784	-80
4.785	-79.7
4.786	-79
4.787	-77.9
4.788	-76.5
4.789	-74.8
4.79	-72.9
4.791	-71
4.792	-69
4.793	-67.1
4.794	-65.3
4.795	-63.7
4.796	-62.4
4.797	-61.2
4.798	-60.1
4.799	-59.3
4.8	-58.5
4.801	-57.8
4.802	-57.2
4.803	-56.5
4.804	-55.9
4.805	-55.3
4.806	-54.7
4.807	-54.2
4.808	-53.9
4.809	-53.7
4.81	-53.8
4.811	-54.2
4.812	-54.9
4.813	-55.9
4.814	-57.1
4.815	-58.5
4.816	-60.1
4.817	-61.7
4.818	-63.1
4.819	-64.4
4.82	-65.3
4.821	-65.8
4.822	-65.8
4.823	-65.2
4.824	-64.2
4.825	-62.6
4.826	-60.6
4.827	-58.3
4.828	-55.7
4.829	-53
4.83	-50.4
4.831	-48
4.832	-45.8
4.833	-44
4.834	-42.6
4.835	-41.7
4.836	-41.2
4.837	-41
4.838	-41.2
4.839	-41.6
4.84	-42.2
4.841	-42.8
4.842	-43.4
4.843	-43.9
4.844	-44.3
4.845	-44.6
4.846	-44.7
4.847	-44.7
4.848	-44.5
4.849	-44.4
4.85	-44.3
4.851	-44.2
4.852	-44.3
4.853	-44.5
4.854	-44.8
4.855	-45.2
4.856	-45.6
4.857	-46.1
4.858	-46.6
4.859	-47
4.86	-47.3
4.861	-47.4
4.862	-47.3
4.863	-47.1
4.864	-46.7
4.865	-46.3
4.866	-45.8
4.867	-45.4
4.868	-45.2
4.869	-45.2
4.87	-45.4
4.871	-46
4.872	-46.9
4.873	-48.1
4.874	-49.5
4.875	-51
4.876	-52.6
4.877	-54
4.878	-55.1
4.879	-55.8
4.88	-55.9
4.881	-55.6
4.882	-54.6
4.883	-53
4.884	-50.9
4.885	-48.5
4.886	-45.8
4.887	-43.2
4.888	-40.7
4.889	-38.6
4.89	-37.1
4.891	-36.3
4.892	-36.4
4.893	-37.2
4.894	-38.9
4.895	-41.3
4.896	-44.1
4.897	-47.2
4.898	-50.4
4.899	-53.3
4.9	-55.7
4.901	-57.4
4.902	-58.1
4.903	-57.9
4.904	-56.7
4.905	-54.6
4.906	-51.7
4.907	-48.2
4.908	-44.4
4.909	-40.6
4.91	-37.1
4.911	-34.3
4.912	-32.4
4.913	-31.6
4.914	-31.9
4.915	-33.5
4.916	-36.1
4.917	-39.7
4.918	-43.8
4.919	-48.3
4.92	-52.7
4.921	-56.6
4.922	-59.8
4.923	-61.9
4.924	-62.7
4.925	-62.1
4.926	-60.1
4.927	-56.9
4.928	-52.6
4.929	-47.6
4.93	-42.4
4.931	-37.2
4.932	-32.5
4.933	-28.8
4.934	-26.3
4.935	-25.3
4.936	-25.9
4.937	-28
4.938	-31.6
4.939	-36.3
4.94	-41.9
4.941	-47.9
4.942	-53.9
4.943	-59.3
4.944	-63.7
4.945	-66.8
4.946	-68.4
4.947	-68.2
4.948	-66.3
4.949	-62.8
4.95	-57.9
4.951	-52.1
4.952	-45.5
4.953	-38.9
4.954	-32.5
4.955	-26.8
4.956	-22.2
4.957	-18.9
4.958	-17.1
4.959	-16.7
4.96	-17.8
4.961	-20.1
4.962	-23.3
4.963	-27.1
4.964	-31.1
4.965	-34.8
4.966	-38.1
4.967	-40.5
4.968	-41.9
4.969	-42.3
4.97	-41.5
4.971	-39.9
4.972	-37.5
4.973	-34.6
4.974	-31.6
4.975	-28.8
4.976	-26.5
4.977	-24.9
4.978	-24.2
4.979	-24.6
4.98	-26
4.981	-28.5
4.982	-31.7
4.983	-35.4
4.984	-39.3
4.985	-43.2
4.986	-46.8
4.987	-49.7
4.988	-51.7
4.989	-52.6
4.99	-52.4
4.991	-51
4.992	-48.6
4.993	-45.2
4.994	-41
4.995	-36.2
4.996	-31.2
4.997	-25.9
4.998	-20.7
4.999	-15.7
5	-10.8
5.001	-6.3
5.002	-1.9
5.003	2.3
5.004	6.4
5.005	10.4
5.006	14.6
5.007	18.9
5.008	23.3
5.009	27.8
5.01	32.1
5.011	36.4
5.012	40.2
5.013	43.4
5.014	45.6
5.015	46.9
5.016	46.9
5.017	45.6
5.018	42.9
5.019	38.8
5.02	33.5
5.021	27.3
5.022	20.5
5.023	13.4
5.024	6.3
5.025	-0.3
5.026	-6.1
5.027	-10.7
5.028	-14
5.029	-15.8
5.03	-16.1
5.031	-15
5.032	-12.7
5.033	-9.4
5.034	-5.5
5.035	-1.4
5.036	2.6
5.037	6
5.038	8.6
5.039	10.1
5.04	10.4
5.041	9.4
5.042	7.2
5.043	3.8
5.044	-0.4
5.045	-5.2
5.046	-10.3
5.047	-15.4
5.048	-20.2
5.049	-24.4
5.05	-27.9
5.051	-30.5
5.052	-32.2
5.053	-33.2
5.054	-33.5
5.055	-33.4
5.056	-33.1
5.057	-32.8
5.058	-32.7
5.059	-33.2
5.06	-34.3
5.061	-36.1
5.062	-38.7
5.063	-42.1
5.064	-45.9
5.065	-50.2
5.066	-54.5
5.067	-58.8
5.068	-62.7
5.069	-66
5.07	-68.4
5.071	-69.8
5.072	-70.2
5.073	-69.6
5.074	-68
5.075	-65.5
5.076	-62.4
5.077	-58.9
5.078	-55.4
5.079	-52
5.08	-49
5.081	-46.7
5.082	-45.2
5.083	-44.7
5.084	-45.1
5.085	-46.6
5.086	-48.9
5.087	-51.9
5.088	-55.4
5.089	-59.1
5.09	-62.9
5.091	-66.3
5.092	-69.3
5.093	-71.5
5.094	-72.8
5.095	-73
5.096	-72.2
5.097	-70.3
5.098	-67.4
5.099	-63.7
5.1	-59.4
5.101	-54.6
5.102	-49.7
5.103	-45.1
5.104	-41
5.105	-37.8
5.106	-35.6
5.107	-34.7
5.108	-35.4
5.109	-37.7
5.11	-41.8
5.111	-47.6
5.112	-55
5.113	-63.6
5.114	-73.5
5.115	-84.3
5.116	-95.7
5.117	-107.1
5.118	-117.7
5.119	-127.6
5.12	-136.3
5.121	-143.3
5.122	-148.1
5.123	-149.7
5.124	-148.3
5.125	-143.8
5.126	-135.8
5.127	-124
5.128	-107.6
5.129	-87.2
5.13	-62.7
5.131	-34.2
5.132	-1.6
5.133	35.5
5.134	76.2
5.135	120.5
5.136	167.9
5.137	218.2
5.138	271
5.139	325
5.14	380
5.141	435.1
5.142	489.4
5.143	541.5
5.144	589.9
5.145	634
5.146	673
5.147	705.5
5.148	729.9
5.149	745.2
5.15	751.3
5.151	748.1
5.152	735.1
5.153	711.8
5.154	678.7
5.155	637.2
5.156	588.3
5.157	533.3
5.158	473.1
5.159	409.6
5.16	344.9
5.161	280.8
5.162	218.8
5.163	160.2
5.164	106.9
5.165	59.6
5.166	19.2
5.167	-14.1
5.168	-40
5.169	-58.2
5.17	-69.7
5.171	-75.5
5.172	-76.2
5.173	-73.1
5.174	-66.3
5.175	-57.7
5.176	-48.3
5.177	-39
5.178	-30.4
5.179	-22.4
5.18	-15.8
5.181	-11
5.182	-7.8
5.183	-6
5.184	-4.9
5.185	-4.6
5.186	-4.7
5.187	-5.1
5.188	-5.3
5.189	-5.2
5.19	-4.6
5.191	-3.7
5.192	-2.6
5.193	-1.5
5.194	-0.5
5.195	0
5.196	0
5.197	-0.8
5.198	-2.5
5.199	-5.2
5.2	-8.8
5.201	-13
5.202	-17.8
5.203	-22.7
5.204	-27.6
5.205	-32
5.206	-35.6
5.207	-38.2
5.208	-39.7
5.209	-39.8
5.21	-38.7
5.211	-36.4
5.212	-33
5.213	-28.9
5.214	-24.4
5.215	-19.7
5.216	-15.3
5.217	-11.4
5.218	-8.3
5.219	-6.1
5.22	-4.9
5.221	-4.8
5.222	-5.6
5.223	-7.2
5.224	-9.4
5.225	-12
5.226	-14.6
5.227	-17
5.228	-19.1
5.229	-20.5
5.23	-21.3
5.231	-21.3
5.232	-20.6
5.233	-19.3
5.234	-17.5
5.235	-15.3
5.236	-13.1
5.237	-10.8
5.238	-8.8
5.239	-7.2
5.24	-6
5.241	-5.2
5.242	-5
5.243	-5.2
5.244	-5.7
5.245	-6.5
5.246	-7.4
5.247	-8.3
5.248	-9.1
5.249	-9.7
5.25	-10.1
5.251	-10.4
5.252	-10.4
5.253	-10.2
5.254	-9.9
5.255	-9.6
5.256	-9.3
5.257	-9
5.258	-8.7
5.259	-8.4
5.26	-8.1
5.261	-7.7
5.262	-7.1
5.263	-6
5.264	-4.6
5.265	-2.6
5.266	-0
5.267	3.2
5.268	7
5.269	11.3
5.27	16
5.271	20.9
5.272	25.8
5.273	30.5
5.274	34.7
5.275	38.3
5.276	41.1
5.277	43
5.278	43.9
5.279	43.9
5.28	43
5.281	41.4
5.282	39.4
5.283	37.1
5.284	34.8
5.285	32.7
5.286	31.1
5.287	30.1
5.288	30
5.289	30.5
5.29	31.8
5.291	33.8
5.292	36.3
5.293	39.1
5.294	41.9
5.295	44.6
5.296	47
5.297	48.8
5.298	50.1
5.299	50.8
5.3	50.8
5.301	50.3
5.302	49.6
5.303	48.7
5.304	47.9
5.305	47.4
5.306	47.5
5.307	48.2
5.308	49.8
5.309	52.3
5.31	55.5
5.311	59.5
5.312	63.9
5.313	68.8
5.314	73.7
5.315	78.3
5.316	82.6
5.317	86.3
5.318	89.2
5.319	91.4
5.32	92.7
5.321	93.3
5.322	93.4
5.323	93.3
5.324	93.1
5.325	93.1
5.326	93.5
5.327	94.6
5.328	96.7
5.329	99.5
5.33	103.3
5.331	107.9
5.332	113.1
5.333	118.9
5.334	124.7
5.335	130.4
5.336	135.6
5.337	140.2
5.338	143.9
5.339	146.5
5.34	148.1
5.341	148.7
5.342	148.4
5.343	147.5
5.344	146.2
5.345	144.8
5.346	143.7
5.347	143.1
5.348	143.4
5.349	144.6
5.35	146.9
5.351	150.2
5.352	154.6
5.353	159.8
5.354	165.5
5.355	171.6
5.356	177.6
5.357	183.3
5.358	188.4
5.359	192.6
5.36	195.8
5.361	197.9
5.362	198.8
5.363	198.8
5.364	197.8
5.365	196.2
5.366	194.3
5.367	192.2
5.368	190.2
5.369	188.6
5.37	187.5
5.371	187.1
5.372	187.3
5.373	188
5.374	189.3
5.375	190.8
5.376	192.4
5.377	193.8
5.378	194.9
5.379	195.3
5.38	194.9
5.381	193.6
5.382	191.4
5.383	188.2
5.384	184.2
5.385	179.5
5.386	174.3
5.387	168.8
5.388	163.2
5.389	157.8
5.39	152.8
5.391	148.2
5.392	144.3
5.393	141
5.394	138.4
5.395	136.4
5.396	134.9
5.397	133.8
5.398	132.9
5.399	132.1
5.4	131.4
5.401	130.6
5.402	129.5
5.403	128.1
5.404	126.6
5.405	124.7
5.406	122.7
5.407	120.6
5.408	118.1
5.409	115.7
5.41	113.2
5.411	110.7
5.412	108
5.413	105
5.414	101.9
5.415	98.5
5.416	94.7
5.417	90.3
5.418	85.3
5.419	79.6
5.42	73.4
5.421	66.5
5.422	59.1
5.423	51.2
5.424	43
5.425	34.7
5.426	26.5
5.427	18.5
5.428	10.8
5.429	3.8
5.43	-2.4
5.431	-8
5.432	-12.7
5.433	-16.7
5.434	-19.9
5.435	-22.4
5.436	-24.5
5.437	-26.2
5.438	-27.8
5.439	-29.1
5.44	-30.6
5.441	-32.2
5.442	-34.1
5.443	-36.4
5.444	-38.8
5.445	-41.5
5.446	-44.4
5.447	-47.5
5.448	-50.7
5.449	-53.8
5.45	-56.8
5.451	-59.7
5.452	-62.3
5.453	-64.6
5.454	-66.6
5.455	-68.3
5.456	-69.6
5.457	-70.7
5.458	-71.6
5.459	-72.2
5.46	-72.6
5.461	-72.9
5.462	-73
5.463	-73.2
5.464	-73.3
5.465	-73.4
5.466	-73.5
5.467	-73.7
5.468	-74
5.469	-74.4
5.47	-75
5.471	-75.8
5.472	-76.8
5.473	-78
5.474	-79.5
5.475	-81.1
5.476	-82.8
5.477	-84.7
5.478	-86.6
5.479	-88.3
5.48	-89.9
5.481	-91.2
5.482	-92
5.483	-92.4
5.484	-92.3
5.485	-91.5
5.486	-90.3
5.487	-88.5
5.488	-86.3
5.489	-83.8
5.49	-81.2
5.491	-78.6
5.492	-76.2
5.493	-74.3
5.494	-72.9
5.495	-72.2
5.496	-72.2
5.497	-73
5.498	-74.6
5.499	-76.9
5.5	-79.7
5.501	-82.9
5.502	-86.3
5.503	-89.7
5.504	-92.9
5.505	-95.8
5.506	-98.1
5.507	-99.8
5.508	-100.8
5.509	-101.2
5.51	-100.9
5.511	-100.3
5.512	-99.2
5.513	-98
5.514	-96.8
5.515	-95.6
5.516	-94.8
5.517	-94.2
5.518	-94
5.519	-94.2
5.52	-94.6
5.521	-95.2
5.522	-95.8
5.523	-96.3
5.524	-96.5
5.525	-96.3
5.526	-95.6
5.527	-94.2
5.528	-92.2
5.529	-89.6
5.53	-86.4
5.531	-83
5.532	-79.3
5.533	-75.6
5.534	-72.1
5.535	-69
5.536	-66.6
5.537	-64.7
5.538	-63.7
5.539	-63.4
5.54	-63.9
5.541	-64.9
5.542	-66.4
5.543	-68.1
5.544	-69.9
5.545	-71.5
5.546	-72.8
5.547	-73.5
5.548	-73.6
5.549	-73
5.55	-71.8
5.551	-69.9
5.552	-67.6
5.553	-64.8
5.554	-61.9
5.555	-58.9
5.556	-56.1
5.557	-53.6
5.558	-51.4
5.559	-49.8
5.56	-48.7
5.561	-48.1
5.562	-48
5.563	-48.1
5.564	-48.5
5.565	-49.1
5.566	-49.6
5.567	-50
5.568	-50.3
5.569	-50.4
5.57	-50.4
5.571	-50.2
5.572	-50
5.573	-49.8
5.574	-49.8
5.575	-50
5.576	-50.5
5.577	-51.4
5.578	-52.6
5.579	-54.2
5.58	-56.1
5.581	-58.1
5.582	-60.2
5.583	-62.2
5.584	-63.8
5.585	-65.1
5.586	-65.8
5.587	-65.8
5.588	-65.1
5.589	-63.7
5.59	-61.6
5.591	-58.9
5.592	-55.6
5.593	-52.1
5.594	-48.4
5.595	-44.7
5.596	-41.2
5.597	-38
5.598	-35.3
5.599	-33.2
5.6	-31.7
5.601	-30.8
5.602	-30.5
5.603	-30.7
5.604	-31.5
5.605	-32.8
5.606	-34.3
5.607	-36.2
5.608	-38.2
5.609	-40.5
5.61	-42.8
5.611	-45.1
5.612	-47.5
5.613	-49.8
5.614	-52.1
5.615	-54.2
5.616	-56.1
5.617	-57.6
5.618	-58.8
5.619	-59.4
5.62	-59.4
5.621	-58.7
5.622	-57.3
5.623	-55.1
5.624	-52
5.625	-48.3
5.626	-44
5.627	-39.3
5.628	-34.4
5.629	-29.5
5.63	-25.1
5.631	-21.2
5.632	-18.2
5.633	-16.4
5.634	-15.8
5.635	-16.6
5.636	-18.7
5.637	-22.1
5.638	-26.7
5.639	-32.2
5.64	-38.3
5.641	-44.7
5.642	-51
5.643	-56.9
5.644	-62.2
5.645	-66.5
5.646	-69.7
5.647	-71.7
5.648	-72.6
5.649	-72.4
5.65	-71.3
5.651	-69.7
5.652	-67.6
5.653	-65.5
5.654	-63.5
5.655	-62
5.656	-61.1
5.657	-60.9
5.658	-61.4
5.659	-62.5
5.66	-64.1
5.661	-66.1
5.662	-68
5.663	-69.8
5.664	-71
5.665	-71.5
5.666	-71.2
5.667	-69.8
5.668	-67.4
5.669	-64
5.67	-59.7
5.671	-54.9
5.672	-49.7
5.673	-44.5
5.674	-39.6
5.675	-35.2
5.676	-31.7
5.677	-29.1
5.678	-27.7
5.679	-27.5
5.68	-28.3
5.681	-30.2
5.682	-32.7
5.683	-35.9
5.684	-39.3
5.685	-42.6
5.686	-45.7
5.687	-48.3
5.688	-50.3
5.689	-51.6
5.69	-52
5.691	-51.8
5.692	-51
5.693	-49.7
5.694	-48.1
5.695	-46.4
5.696	-44.9
5.697	-43.6
5.698	-42.6
5.699	-42.2
5.7	-42.2
5.701	-42.6
5.702	-43.5
5.703	-44.6
5.704	-45.8
5.705	-47.1
5.706	-48.2
5.707	-49.1
5.708	-49.6
5.709	-49.7
5.71	-49.3
5.711	-48.7
5.712	-47.6
5.713	-46.3
5.714	-44.8
5.715	-43.1
5.716	-41.5
5.717	-39.9
5.718	-38.4
5.719	-37
5.72	-35.6
5.721	-34.3
5.722	-32.9
5.723	-31.5
5.724	-29.8
5.725	-28
5.726	-25.9
5.727	-23.6
5.728	-21
5.729	-18.2
5.73	-15.3
5.731	-12.4
5.732	-9.6
5.733	-7
5.734	-4.6
5.735	-2.5
5.736	-0.8
5.737	0.5
5.738	1.6
5.739	2.4
5.74	3.1
5.741	3.7
5.742	4.5
5.743	5.5
5.744	6.7
5.745	8.3
5.746	10.2
5.747	12.4
5.748	14.8
5.749	17.3
5.75	19.6
5.751	21.6
5.752	23.2
5.753	24
5.754	23.9
5.755	22.9
5.756	20.8
5.757	17.7
5.758	13.7
5.759	9
5.76	3.7
5.761	-1.9
5.762	-7.5
5.763	-12.8
5.764	-17.5
5.765	-21.4
5.766	-24.2
5.767	-25.8
5.768	-26.3
5.769	-25.4
5.77	-23.5
5.771	-20.7
5.772	-17.1
5.773	-13.1
5.774	-9
5.775	-5
5.776	-1.4
5.777	1.6
5.778	3.7
5.779	4.9
5.78	5.1
5.781	4.3
5.782	2.6
5.783	0.1
5.784	-3.1
5.785	-6.9
5.786	-10.9
5.787	-15.1
5.788	-19.3
5.789	-23.4
5.79	-27.2
5.791	-30.7
5.792	-33.9
5.793	-36.8
5.794	-39.3
5.795	-41.5
5.796	-43.4
5.797	-45
5.798	-46.4
5.799	-47.6
5.8	-48.6
5.801	-49.4
5.802	-50.1
5.803	-50.6
5.804	-50.9
5.805	-51.1
5.806	-51.2
5.807	-51.3
5.808	-51.4
5.809	-51.4
5.81	-51.5
5.811	-51.8
5.812	-52.3
5.813	-53
5.814	-53.8
5.815	-54.8
5.816	-55.9
5.817	-57
5.818	-58
5.819	-58.9
5.82	-59.5
5.821	-59.8
5.822	-59.6
5.823	-58.9
5.824	-57.8
5.825	-56.3
5.826	-54.4
5.827	-52.4
5.828	-50.3
5.829	-48.3
5.83	-46.6
5.831	-45.3
5.832	-44.7
5.833	-44.8
5.834	-45.7
5.835	-47.3
5.836	-49.5
5.837	-52.3
5.838	-55.5
5.839	-58.9
5.84	-62.2
5.841	-65.2
5.842	-67.8
5.843	-69.8
5.844	-71.2
5.845	-72
5.846	-72.3
5.847	-72.3
5.848	-72.1
5.849	-72.1
5.85	-72.6
5.851	-74.1
5.852	-76.7
5.853	-80.3
5.854	-85.4
5.855	-92.1
5.856	-100.2
5.857	-109.3
5.858	-118.5
5.859	-127.8
5.86	-136.6
5.861	-144.3
5.862	-149.9
5.863	-151.9
5.864	-150.3
5.865	-144.6
5.866	-134.3
5.867	-118.7
5.868	-96.9
5.869	-69.6
5.87	-36.9
5.871	0.9
5.872	43.6
5.873	91.2
5.874	142.3
5.875	196.3
5.876	252.6
5.877	310.3
5.878	368.7
5.879	426.4
5.88	483
5.881	537.8
5.882	589.9
5.883	638
5.884	681.1
5.885	719
5.886	751.1
5.887	776.5
5.888	794
5.889	802.8
5.89	803.3
5.891	795.3
5.892	778.5
5.893	752.5
5.894	717.7
5.895	675.2
5.896	626.1
5.897	571.2
5.898	511.6
5.899	448.8
5.9	384.9
5.901	321.4
5.902	259.9
5.903	201.7
5.904	148.7
5.905	101.8
5.906	61.7
5.907	29.1
5.908	3.8
5.909	-13.4
5.91	-23.8
5.911	-28.3
5.912	-27.8
5.913	-23.6
5.914	-16.2
5.915	-7.5
5.916	1.1
5.917	8.7
5.918	14.4
5.919	18.3
5.92	19.5
5.921	17.8
5.922	13.5
5.923	7
5.924	-0.7
5.925	-9.2
5.926	-18
5.927	-26.3
5.928	-33.5
5.929	-38.9
5.93	-42.5
5.931	-44
5.932	-43.6
5.933	-41.4
5.934	-37.8
5.935	-33.3
5.936	-28.4
5.937	-23.6
5.938	-19.3
5.939	-15.9
5.94	-13.7
5.941	-12.8
5.942	-13.1
5.943	-14.5
5.944	-16.7
5.945	-19.3
5.946	-22
5.947	-24.4
5.948	-26.2
5.949	-26.9
5.95	-26.5
5.951	-24.8
5.952	-22.1
5.953	-18.3
5.954	-13.8
5.955	-9
5.956	-4.2
5.957	0.3
5.958	4
5.959	6.6
5.96	8.1
5.961	8.3
5.962	7.2
5.963	4.9
5.964	1.8
5.965	-2.1
5.966	-6.2
5.967	-10.3
5.968	-14.1
5.969	-17.3
5.97	-19.8
5.971	-21.5
5.972	-22.4
5.973	-22.5
5.974	-22
5.975	-21.2
5.976	-20.2
5.977	-19.2
5.978	-18.5
5.979	-18.2
5.98	-18.3
5.981	-18.7
5.982	-19.5
5.983	-20.4
5.984	-21.1
5.985	-21.5
5.986	-21.3
5.987	-20.3
5.988	-18.4
5.989	-15.5
5.99	-11.7
5.991	-7.1
5.992	-2
5.993	3.5
5.994	8.8
5.995	13.5
5.996	17.4
5.997	20.1
5.998	21.5
5.999	21.2
6	19.5
6.001	16.4
6.002	12.2
6.003	7.3
6.004	2.1
6.005	-2.8
6.006	-7
6.007	-10.1
6.008	-11.5
6.009	-11.2
6.01	-9.1
6.011	-5.1
6.012	0.5
6.013	7.4
6.014	15.1
6.015	23
6.016	30.5
6.017	37.2
6.018	42.6
6.019	46.1
6.02	47.7
6.021	47.2
6.022	44.8
6.023	40.7
6.024	35.2
6.025	29
6.026	22.6
6.027	16.6
6.028	11.6
6.029	8
6.03	6.3
6.031	6.7
6.032	9.2
6.033	13.7
6.034	20
6.035	27.7
6.036	36.1
6.037	44.9
6.038	53.5
6.039	61.2
6.04	67.6
6.041	72.5
6.042	75.5
6.043	76.7
6.044	76.2
6.045	74.1
6.046	70.8
6.047	66.8
6.048	62.5
6.049	58.4
6.05	54.9
6.051	52.3
6.052	50.9
6.053	50.9
6.054	52.3
6.055	54.8
6.056	58.4
6.057	62.8
6.058	67.7
6.059	72.6
6.06	77.3
6.061	81.6
6.062	85.2
6.063	88
6.064	90.1
6.065	91.3
6.066	92
6.067	92.3
6.068	92.5
6.069	92.7
6.07	93.3
6.071	94.5
6.072	96.3
6.073	98.9
6.074	102.4
6.075	106.5
6.076	111.2
6.077	116.4
6.078	121.9
6.079	127.3
6.08	132.6
6.081	137.6
6.082	142.1
6.083	146.2
6.084	149.7
6.085	152.7
6.086	155.3
6.087	157.5
6.088	159.6
6.089	161.5
6.09	163.4
6.091	165.4
6.092	167.6
6.093	169.9
6.094	172.2
6.095	174.6
6.096	176.9
6.097	179
6.098	180.8
6.099	182.3
6.1	183.3
6.101	183.9
6.102	184.1
6.103	184
6.104	183.5
6.105	182.8
6.106	182.1
6.107	181.4
6.108	180.9
6.109	180.7
6.11	180.8
6.111	181.2
6.112	181.9
6.113	182.8
6.114	183.9
6.115	185.1
6.116	186.1
6.117	187
6.118	187.6
6.119	187.9
6.12	187.8
6.121	187.3
6.122	186.6
6.123	185.6
6.124	184.4
6.125	183.2
6.126	182
6.127	180.9
6.128	179.9
6.129	179
6.13	178.2
6.131	177.3
6.132	176.2
6.133	174.7
6.134	172.6
6.135	169.8
6.136	166.2
6.137	161.6
6.138	155.9
6.139	149.3
6.14	141.8
6.141	133.6
6.142	124.8
6.143	115.8
6.144	106.9
6.145	98.3
6.146	90.3
6.147	83.1
6.148	76.8
6.149	71.6
6.15	67.4
6.151	64.1
6.152	61.5
6.153	59.4
6.154	57.6
6.155	55.7
6.156	53.6
6.157	50.9
6.158	47.5
6.159	43.4
6.16	38.6
6.161	33.1
6.162	27
6.163	20.7
6.164	14.4
6.165	8.5
6.166	3.1
6.167	-1.5
6.168	-5.1
6.169	-7.7
6.17	-9.2
6.171	-9.7
6.172	-9.5
6.173	-8.9
6.174	-8.1
6.175	-7.4
6.176	-7.2
6.177	-7.8
6.178	-9.5
6.179	-12.3
6.18	-16.2
6.181	-21.3
6.182	-27.4
6.183	-34.2
6.184	-41.3
6.185	-48.4
6.186	-55.3
6.187	-61.4
6.188	-66.7
6.189	-70.7
6.19	-73.5
6.191	-75
6.192	-75.4
6.193	-74.8
6.194	-73.5
6.195	-71.8
6.196	-70
6.197	-68.6
6.198	-67.7
6.199	-67.5
6.2	-68.3
6.201	-70
6.202	-72.7
6.203	-76.1
6.204	-80
6.205	-84.1
6.206	-88.2
6.207	-91.9
6.208	-94.9
6.209	-97
6.21	-97.9
6.211	-97.7
6.212	-96.4
6.213	-94
6.214	-90.6
6.215	-86.7
6.216	-82.3
6.217	-77.9
6.218	-73.7
6.219	-69.9
6.22	-66.7
6.221	-64.3
6.222	-62.7
6.223	-61.9
6.224	-61.9
6.225	-62.4
6.226	-63.3
6.227	-64.5
6.228	-65.8
6.229	-67.1
6.23	-68.1
6.231	-69
6.232	-69.5
6.233	-69.9
6.234	-70.2
6.235	-70.4
6.236	-70.8
6.237	-71.3
6.238	-72.3
6.239	-73.6
6.24	-75.4
6.241	-77.6
6.242	-80.1
6.243	-82.8
6.244	-85.5
6.245	-88.1
6.246	-90.4
6.247	-92.2
6.248	-93.4
6.249	-93.8
6.25	-93.5
6.251	-92.5
6.252	-90.9
6.253	-88.8
6.254	-86.4
6.255	-83.9
6.256	-81.6
6.257	-79.6
6.258	-78.2
6.259	-77.6
6.26	-77.7
6.261	-78.6
6.262	-80.3
6.263	-82.7
6.264	-85.5
6.265	-88.5
6.266	-91.5
6.267	-94.3
6.268	-96.6
6.269	-98.3
6.27	-99.1
6.271	-99
6.272	-98
6.273	-96
6.274	-93.2
6.275	-89.8
6.276	-85.8
6.277	-81.6
6.278	-77.4
6.279	-73.3
6.28	-69.5
6.281	-66.2
6.282	-63.5
6.283	-61.4
6.284	-60
6.285	-59.3
6.286	-59.1
6.287	-59.4
6.288	-60.1
6.289	-61
6.29	-62.1
6.291	-63.1
6.292	-64.2
6.293	-65
6.294	-65.7
6.295	-66.1
6.296	-66.3
6.297	-66.1
6.298	-65.7
6.299	-65
6.3	-64
6.301	-62.8
6.302	-61.4
6.303	-59.8
6.304	-58
6.305	-56.1
6.306	-54.2
6.307	-52.1
6.308	-50.2
6.309	-48.3
6.31	-46.7
6.311	-45.2
6.312	-44.2
6.313	-43.4
6.314	-43.1
6.315	-43.3
6.316	-43.8
6.317	-44.7
6.318	-45.9
6.319	-47.4
6.32	-49
6.321	-50.6
6.322	-52
6.323	-53.3
6.324	-54.2
6.325	-54.8
6.326	-55
6.327	-54.7
6.328	-54.1
6.329	-53.2
6.33	-52
6.331	-50.8
6.332	-49.6
6.333	-48.5
6.334	-47.7
6.335	-47.2
6.336	-47.1
6.337	-47.5
6.338	-48.1
6.339	-49.1
6.34	-50.3
6.341	-51.7
6.342	-52.9
6.343	-54.1
6.344	-55
6.345	-55.6
6.346	-55.8
6.347	-55.6
6.348	-55
6.349	-54.1
6.35	-53
6.351	-51.8
6.352	-50.6
6.353	-49.6
6.354	-48.8
6.355	-48.4
6.356	-48.4
6.357	-48.8
6.358	-49.6
6.359	-50.7
6.36	-52
6.361	-53.4
6.362	-54.8
6.363	-55.9
6.364	-56.7
6.365	-57.1
6.366	-57.1
6.367	-56.5
6.368	-55.5
6.369	-54
6.37	-52.3
6.371	-50.4
6.372	-48.5
6.373	-46.7
6.374	-45.2
6.375	-44
6.376	-43.3
6.377	-43
6.378	-43.2
6.379	-43.9
6.38	-44.8
6.381	-46
6.382	-47.2
6.383	-48.4
6.384	-49.5
6.385	-50.3
6.386	-50.7
6.387	-50.8
6.388	-50.6
6.389	-50.2
6.39	-49.6
6.391	-48.9
6.392	-48.3
6.393	-47.9
6.394	-47.8
6.395	-48.1
6.396	-48.7
6.397	-49.8
6.398	-51.2
6.399	-52.8
6.4	-54.5
6.401	-56.2
6.402	-57.8
6.403	-59
6.404	-59.7
6.405	-59.9
6.406	-59.5
6.407	-58.4
6.408	-56.8
6.409	-54.8
6.41	-52.4
6.411	-49.8
6.412	-47.1
6.413	-44.7
6.414	-42.5
6.415	-40.8
6.416	-39.6
6.417	-38.9
6.418	-38.7
6.419	-39.1
6.42	-39.8
6.421	-40.8
6.422	-41.9
6.423	-43.1
6.424	-44.1
6.425	-44.9
6.426	-45.4
6.427	-45.6
6.428	-45.5
6.429	-45.2
6.43	-44.7
6.431	-44.1
6.432	-43.6
6.433	-43.3
6.434	-43.3
6.435	-43.5
6.436	-44.1
6.437	-45.1
6.438	-46.4
6.439	-47.9
6.44	-49.4
6.441	-51
6.442	-52.5
6.443	-53.7
6.444	-54.4
6.445	-54.8
6.446	-54.6
6.447	-54
6.448	-52.9
6.449	-51.4
6.45	-49.5
6.451	-47.5
6.452	-45.3
6.453	-43
6.454	-40.8
6.455	-38.6
6.456	-36.5
6.457	-34.4
6.458	-32.3
6.459	-30.2
6.46	-28
6.461	-25.6
6.462	-22.9
6.463	-20.1
6.464	-17.1
6.465	-14
6.466	-11
6.467	-8.2
6.468	-5.8
6.469	-4
6.47	-3.1
6.471	-3.1
6.472	-4.3
6.473	-6.7
6.474	-10.4
6.475	-15.2
6.476	-20.9
6.477	-27.2
6.478	-34
6.479	-40.7
6.48	-47
6.481	-52.6
6.482	-57
6.483	-59.9
6.484	-61.3
6.485	-60.9
6.486	-58.9
6.487	-55.3
6.488	-50.5
6.489	-44.7
6.49	-38.4
6.491	-32.1
6.492	-26.2
6.493	-21.1
6.494	-17.2
6.495	-14.8
6.496	-13.9
6.497	-14.7
6.498	-16.9
6.499	-20.2
6.5	-24.5
6.501	-29.2
6.502	-33.8
6.503	-37.8
6.504	-40.8
6.505	-42.5
6.506	-42.4
6.507	-40.4
6.508	-36.5
6.509	-30.8
6.51	-23.4
6.511	-14.7
6.512	-5.2
6.513	4.7
6.514	14.4
6.515	23.6
6.516	31.7
6.517	38.4
6.518	43.4
6.519	46.6
6.52	47.9
6.521	47.5
6.522	45.6
6.523	42.4
6.524	38.2
6.525	33.4
6.526	28.4
6.527	23.5
6.528	19
6.529	14.9
6.53	11.5
6.531	8.8
6.532	6.7
6.533	5.2
6.534	4.1
6.535	3.3
6.536	2.5
6.537	1.7
6.538	0.7
6.539	-0.4
6.54	-1.7
6.541	-3.2
6.542	-4.6
6.543	-5.9
6.544	-6.8
6.545	-7.2
6.546	-6.9
6.547	-5.9
6.548	-4.2
6.549	-1.6
6.55	1.5
6.551	5.1
6.552	8.8
6.553	12.3
6.554	15.3
6.555	17.5
6.556	18.6
6.557	18.2
6.558	16.2
6.559	12.5
6.56	7.1
6.561	0.2
6.562	-8.1
6.563	-17.5
6.564	-27.4
6.565	-37.5
6.566	-47.3
6.567	-56.5
6.568	-64.5
6.569	-71.1
6.57	-76
6.571	-79.2
6.572	-80.5
6.573	-80.1
6.574	-78.1
6.575	-74.8
6.576	-70.6
6.577	-65.8
6.578	-60.7
6.579	-55.6
6.58	-50.9
6.581	-46.8
6.582	-43.6
6.583	-41.3
6.584	-39.8
6.585	-39.3
6.586	-39.6
6.587	-40.6
6.588	-42.2
6.589	-44.2
6.59	-46.5
6.591	-49
6.592	-51.6
6.593	-54.2
6.594	-56.9
6.595	-59.6
6.596	-62.2
6.597	-64.9
6.598	-67.6
6.599	-70.1
6.6	-72.6
6.601	-74.8
6.602	-76.7
6.603	-78
6.604	-78.7
6.605	-78.5
6.606	-77.3
6.607	-75.2
6.608	-72
6.609	-67.8
6.61	-62.7
6.611	-57
6.612	-50.9
6.613	-44.9
6.614	-39.4
6.615	-34.7
6.616	-31.4
6.617	-29.7
6.618	-30
6.619	-32.6
6.62	-37.5
6.621	-44.8
6.622	-54.3
6.623	-65.4
6.624	-78.1
6.625	-91.7
6.626	-105.8
6.627	-119.6
6.628	-131.9
6.629	-142.8
6.63	-151.6
6.631	-157.9
6.632	-161
6.633	-160
6.634	-155.4
6.635	-146.9
6.636	-134.8
6.637	-118.7
6.638	-97.9
6.639	-73.3
6.64	-45
6.641	-13.2
6.642	22.3
6.643	62
6.644	104.9
6.645	151.1
6.646	200.5
6.647	252.7
6.648	307.6
6.649	364.2
6.65	422.2
6.651	480.8
6.652	539.1
6.653	595.9
6.654	649.6
6.655	699.5
6.656	744.6
6.657	783.6
6.658	814.9
6.659	837.1
6.66	850.3
6.661	854.3
6.662	848.6
6.663	832.5
6.664	806.5
6.665	771.9
6.666	729.8
6.667	681.2
6.668	626.9
6.669	568.6
6.67	508.3
6.671	447.5
6.672	387.6
6.673	329.7
6.674	275.3
6.675	225.3
6.676	180.5
6.677	141.3
6.678	107.7
6.679	80.4
6.68	58.7
6.681	42.1
6.682	30.2
6.683	22.1
6.684	17.9
6.685	16.3
6.686	16.4
6.687	17.6
6.688	19.2
6.689	21.4
6.69	23.2
6.691	24.1
6.692	24
6.693	22.6
6.694	20.6
6.695	17.5
6.696	13.4
6.697	8.3
6.698	2.6
6.699	-3.4
6.7	-9.4
6.701	-15.3
6.702	-21
6.703	-26.2
6.704	-30.7
6.705	-34.2
6.706	-36.9
6.707	-38.6
6.708	-39.4
6.709	-39.2
6.71	-38.3
6.711	-36.7
6.712	-34.6
6.713	-32.2
6.714	-29.6
6.715	-27.2
6.716	-25
6.717	-23.1
6.718	-21.8
6.719	-20.9
6.72	-20.5
6.721	-20.6
6.722	-21
6.723	-21.7
6.724	-22.5
6.725	-23.2
6.726	-23.6
6.727	-23.6
6.728	-23.2
6.729	-22.3
6.73	-20.9
6.731	-19.1
6.732	-16.8
6.733	-14.4
6.734	-12
6.735	-9.9
6.736	-8.1
6.737	-7
6.738	-6.7
6.739	-7.3
6.74	-8.8
6.741	-11.2
6.742	-14.5
6.743	-18.4
6.744	-22.8
6.745	-27.4
6.746	-31.8
6.747	-35.9
6.748	-39.3
6.749	-41.7
6.75	-43
6.751	-43
6.752	-41.8
6.753	-39.2
6.754	-35.5
6.755	-30.9
6.756	-25.5
6.757	-19.7
6.758	-13.8
6.759	-8
6.76	-2.8
6.761	1.7
6.762	5.3
6.763	7.9
6.764	9.3
6.765	9.7
6.766	9
6.767	7.5
6.768	5.5
6.769	3
6.77	0.4
6.771	-2.1
6.772	-4.3
6.773	-5.8
6.774	-6.6
6.775	-6.5
6.776	-5.6
6.777	-3.7
6.778	-0.9
6.779	2.7
6.78	6.8
6.781	11.5
6.782	16.4
6.783	21.5
6.784	26.5
6.785	31.3
6.786	35.7
6.787	39.7
6.788	43
6.789	45.7
6.79	47.7
6.791	49.1
6.792	49.9
6.793	50.1
6.794	49.8
6.795	49.1
6.796	48.1
6.797	46.8
6.798	45.6
6.799	44.3
6.8	43.1
6.801	42.1
6.802	41.4
6.803	41
6.804	41
6.805	41.3
6.806	42
6.807	43.1
6.808	44.5
6.809	46.1
6.81	47.8
6.811	49.7
6.812	51.5
6.813	53.4
6.814	55.1
6.815	56.5
6.816	57.8
6.817	58.9
6.818	59.8
6.819	60.5
6.82	61.1
6.821	61.7
6.822	62.3
6.823	63.2
6.824	64.2
6.825	65.5
6.826	67.2
6.827	69.3
6.828	71.9
6.829	74.8
6.83	78.1
6.831	81.6
6.832	85.3
6.833	89.1
6.834	92.9
6.835	96.6
6.836	100
6.837	103.3
6.838	106.3
6.839	109
6.84	111.4
6.841	113.6
6.842	115.7
6.843	117.7
6.844	119.7
6.845	121.7
6.846	123.9
6.847	126.3
6.848	128.9
6.849	131.7
6.85	134.7
6.851	137.7
6.852	140.7
6.853	143.7
6.854	146.4
6.855	148.7
6.856	150.7
6.857	152.1
6.858	153
6.859	153.4
6.86	153.3
6.861	152.7
6.862	151.8
6.863	150.8
6.864	149.6
6.865	148.6
6.866	147.8
6.867	147.3
6.868	147.3
6.869	147.8
6.87	148.8
6.871	150.4
6.872	152.3
6.873	154.7
6.874	157.2
6.875	159.9
6.876	162.6
6.877	165.2
6.878	167.6
6.879	169.7
6.88	171.4
6.881	172.8
6.882	174
6.883	174.8
6.884	175.5
6.885	176.1
6.886	176.7
6.887	177.3
6.888	178.1
6.889	178.9
6.89	179.9
6.891	181.1
6.892	182.3
6.893	183.4
6.894	184.4
6.895	185.2
6.896	185.7
6.897	185.7
6.898	185.2
6.899	184.2
6.9	182.7
6.901	180.7
6.902	178.2
6.903	175.3
6.904	172.2
6.905	168.9
6.906	165.6
6.907	162.3
6.908	158.9
6.909	155.8
6.91	152.8
6.911	149.8
6.912	146.9
6.913	143.8
6.914	140.5
6.915	136.9
6.916	132.8
6.917	128.3
6.918	123
6.919	117.2
6.92	110.8
6.921	103.9
6.922	96.5
6.923	88.7
6.924	80.8
6.925	73
6.926	65.4
6.927	58
6.928	51.1
6.929	44.7
6.93	39
6.931	33.8
6.932	29.1
6.933	24.7
6.934	20.8
6.935	17.2
6.936	13.6
6.937	10
6.938	6.2
6.939	2.4
6.94	-1.5
6.941	-5.5
6.942	-9.6
6.943	-13.6
6.944	-17.3
6.945	-20.7
6.946	-23.6
6.947	-26
6.948	-27.9
6.949	-29
6.95	-29.5
6.951	-29.6
6.952	-29.4
6.953	-29
6.954	-28.7
6.955	-28.7
6.956	-29.2
6.957	-30.4
6.958	-32.5
6.959	-35.4
6.96	-39.3
6.961	-44.1
6.962	-49.6
6.963	-55.7
6.964	-62
6.965	-68.2
6.966	-74.1
6.967	-79.5
6.968	-84
6.969	-87.3
6.97	-89.5
6.971	-90.4
6.972	-90.1
6.973	-88.6
6.974	-86.2
6.975	-83.1
6.976	-79.6
6.977	-75.9
6.978	-72.4
6.979	-69.2
6.98	-66.6
6.981	-64.7
6.982	-63.6
6.983	-63.3
6.984	-63.7
6.985	-64.6
6.986	-66
6.987	-67.7
6.988	-69.4
6.989	-70.9
6.99	-72.1
6.991	-73
6.992	-73.5
6.993	-73.5
6.994	-73.2
6.995	-72.6
6.996	-71.9
6.997	-71.2
6.998	-70.8
6.999	-70.6
7	-70.9
7.001	-71.6
7.002	-72.9
7.003	-74.5
7.004	-76.4
7.005	-78.5
7.006	-80.6
7.007	-82.5
7.008	-84.1
7.009	-85.2
7.01	-85.7
7.011	-85.5
7.012	-84.8
7.013	-83.5
7.014	-81.8
7.015	-79.9
7.016	-77.9
7.017	-76.2
7.018	-74.9
7.019	-74.2
7.02	-74.3
7.021	-75.2
7.022	-76.8
7.023	-79.2
7.024	-82.1
7.025	-85.4
7.026	-88.7
7.027	-91.9
7.028	-94.6
7.029	-96.6
7.03	-97.6
7.031	-97.5
7.032	-96.2
7.033	-93.7
7.034	-90.2
7.035	-85.8
7.036	-80.7
7.037	-75.3
7.038	-69.9
7.039	-64.8
7.04	-60.3
7.041	-56.6
7.042	-54
7.043	-52.6
7.044	-52.4
7.045	-53.3
7.046	-55.2
7.047	-57.9
7.048	-61.2
7.049	-64.7
7.05	-68.1
7.051	-71.3
7.052	-73.9
7.053	-75.8
7.054	-76.9
7.055	-77.2
7.056	-76.6
7.057	-75.4
7.058	-73.5
7.059	-71.3
7.06	-69
7.061	-66.7
7.062	-64.7
7.063	-63.2
7.064	-62.2
7.065	-61.8
7.066	-62.1
7.067	-63
7.068	-64.4
7.069	-66.2
7.07	-68.2
7.071	-70.2
7.072	-72.2
7.073	-73.9
7.074	-75.2
7.075	-76.1
7.076	-76.4
7.077	-76.2
7.078	-75.6
7.079	-74.5
7.08	-73.2
7.081	-71.7
7.082	-70.2
7.083	-68.8
7.084	-67.6
7.085	-66.8
7.086	-66.4
7.087	-66.3
7.088	-66.8
7.089	-67.6
7.09	-68.7
7.091	-70.1
7.092	-71.7
7.093	-73.4
7.094	-74.9
7.095	-76.2
7.096	-77.2
7.097	-77.9
7.098	-78
7.099	-77.6
7.1	-76.6
7.101	-75
7.102	-72.9
7.103	-70.2
7.104	-67.2
7.105	-63.9
7.106	-60.4
7.107	-56.9
7.108	-53.5
7.109	-50.4
7.11	-47.7
7.111	-45.7
7.112	-44.3
7.113	-43.6
7.114	-43.8
7.115	-44.9
7.116	-46.7
7.117	-49.2
7.118	-52.3
7.119	-55.8
7.12	-59.5
7.121	-63.2
7.122	-66.6
7.123	-69.5
7.124	-71.8
7.125	-73.2
7.126	-73.8
7.127	-73.3
7.128	-71.8
7.129	-69.3
7.13	-66.1
7.131	-62.2
7.132	-57.9
7.133	-53.3
7.134	-48.8
7.135	-44.5
7.136	-40.7
7.137	-37.5
7.138	-35
7.139	-33.2
7.14	-32.2
7.141	-31.9
7.142	-32.2
7.143	-32.9
7.144	-33.9
7.145	-35
7.146	-35.9
7.147	-36.7
7.148	-37.2
7.149	-37.5
7.15	-37.4
7.151	-37.1
7.152	-36.6
7.153	-36.2
7.154	-36
7.155	-36.2
7.156	-36.8
7.157	-38
7.158	-39.8
7.159	-42.3
7.16	-45.3
7.161	-48.8
7.162	-52.6
7.163	-56.4
7.164	-60
7.165	-63.2
7.166	-65.7
7.167	-67.4
7.168	-68.2
7.169	-68
7.17	-66.8
7.171	-64.8
7.172	-62
7.173	-58.8
7.174	-55.3
7.175	-51.9
7.176	-48.9
7.177	-46.5
7.178	-44.8
7.179	-44.2
7.18	-44.5
7.181	-45.7
7.182	-47.9
7.183	-50.7
7.184	-54
7.185	-57.4
7.186	-60.7
7.187	-63.5
7.188	-65.7
7.189	-67
7.19	-67.3
7.191	-66.5
7.192	-64.7
7.193	-62
7.194	-58.5
7.195	-54.5
7.196	-50.2
7.197	-46
7.198	-42.1
7.199	-38.8
7.2	-36.3
7.201	-34.7
7.202	-34.1
7.203	-34.5
7.204	-35.9
7.205	-38.1
7.206	-40.9
7.207	-44.1
7.208	-47.5
7.209	-50.9
7.21	-54
7.211	-56.7
7.212	-58.9
7.213	-60.4
7.214	-61.2
7.215	-61.3
7.216	-60.7
7.217	-59.5
7.218	-57.7
7.219	-55.5
7.22	-53
7.221	-50.2
7.222	-47.3
7.223	-44.3
7.224	-41.3
7.225	-38.3
7.226	-35.5
7.227	-32.8
7.228	-30.4
7.229	-28.2
7.23	-26.5
7.231	-25.1
7.232	-24.2
7.233	-23.9
7.234	-24.2
7.235	-25.1
7.236	-26.7
7.237	-28.9
7.238	-31.7
7.239	-35
7.24	-38.6
7.241	-42.4
7.242	-46.2
7.243	-49.9
7.244	-53.1
7.245	-55.9
7.246	-57.9
7.247	-59.1
7.248	-59.4
7.249	-58.9
7.25	-57.5
7.251	-55.3
7.252	-52.6
7.253	-49.3
7.254	-45.8
7.255	-42.2
7.256	-38.7
7.257	-35.5
7.258	-32.7
7.259	-30.3
7.26	-28.5
7.261	-27.2
7.262	-26.4
7.263	-26.1
7.264	-26.1
7.265	-26.5
7.266	-27
7.267	-27.7
7.268	-28.6
7.269	-29.5
7.27	-30.5
7.271	-31.6
7.272	-32.8
7.273	-34.2
7.274	-35.8
7.275	-37.5
7.276	-39.4
7.277	-41.4
7.278	-43.5
7.279	-45.5
7.28	-47.2
7.281	-48.6
7.282	-49.5
7.283	-49.8
7.284	-49.3
7.285	-48
7.286	-45.9
7.287	-43.1
7.288	-39.7
7.289	-35.8
7.29	-31.8
7.291	-28
7.292	-24.5
7.293	-21.6
7.294	-19.7
7.295	-18.8
7.296	-19
7.297	-20.4
7.298	-22.9
7.299	-26.3
7.3	-30.3
7.301	-34.6
7.302	-38.8
7.303	-42.7
7.304	-45.8
7.305	-47.9
7.306	-48.8
7.307	-48.3
7.308	-46.5
7.309	-43.5
7.31	-39.6
7.311	-35.2
7.312	-30.5
7.313	-26.1
7.314	-22.4
7.315	-19.7
7.316	-18.5
7.317	-18.8
7.318	-20.8
7.319	-24.3
7.32	-29.1
7.321	-35
7.322	-41.5
7.323	-47.9
7.324	-53.8
7.325	-58.6
7.326	-61.9
7.327	-63.2
7.328	-62.2
7.329	-58.9
7.33	-53.3
7.331	-45.7
7.332	-36.2
7.333	-25.3
7.334	-13.6
7.335	-1.7
7.336	9.8
7.337	20.5
7.338	29.9
7.339	37.7
7.34	43.6
7.341	47.7
7.342	50
7.343	50.7
7.344	50
7.345	48.4
7.346	46.3
7.347	44
7.348	41.8
7.349	39.9
7.35	38.6
7.351	37.9
7.352	37.7
7.353	37.8
7.354	38.1
7.355	38.2
7.356	38
7.357	37.2
7.358	35.5
7.359	33
7.36	29.5
7.361	25.2
7.362	20.4
7.363	15.1
7.364	10
7.365	5.2
7.366	1.3
7.367	-1.6
7.368	-3.2
7.369	-3.2
7.37	-1.7
7.371	1.1
7.372	5
7.373	9.7
7.374	14.6
7.375	19.3
7.376	23.2
7.377	25.8
7.378	26.8
7.379	25.9
7.38	22.8
7.381	17.8
7.382	10.8
7.383	2.3
7.384	-7.2
7.385	-17.1
7.386	-26.8
7.387	-35.8
7.388	-43.3
7.389	-49
7.39	-52.4
7.391	-53.5
7.392	-52.1
7.393	-48.6
7.394	-43.2
7.395	-36.4
7.396	-29
7.397	-21.5
7.398	-14.6
7.399	-9
7.4	-5
7.401	-3.1
7.402	-3.6
7.403	-6.4
7.404	-11.2
7.405	-17.9
7.406	-25.8
7.407	-34.5
7.408	-43.3
7.409	-51.6
7.41	-58.8
7.411	-64.5
7.412	-68.2
7.413	-70
7.414	-69.7
7.415	-67.6
7.416	-63.9
7.417	-59.2
7.418	-54
7.419	-48.8
7.42	-44.1
7.421	-40.5
7.422	-38.2
7.423	-37.6
7.424	-38.6
7.425	-41.2
7.426	-45
7.427	-49.8
7.428	-55
7.429	-60.1
7.43	-64.5
7.431	-67.8
7.432	-69.6
7.433	-69.8
7.434	-68
7.435	-64.5
7.436	-59.4
7.437	-53.1
7.438	-46.4
7.439	-39.7
7.44	-33.7
7.441	-29
7.442	-26.2
7.443	-25.9
7.444	-28.2
7.445	-33.5
7.446	-41.7
7.447	-52.4
7.448	-65.1
7.449	-79.4
7.45	-94.6
7.451	-110.1
7.452	-124.8
7.453	-137.6
7.454	-148.1
7.455	-155.9
7.456	-160.5
7.457	-161.2
7.458	-157.3
7.459	-149.3
7.46	-137.3
7.461	-121.5
7.462	-101.8
7.463	-77.6
7.464	-50.2
7.465	-19.5
7.466	14.2
7.467	51
7.468	91.3
7.469	134.4
7.47	180.4
7.471	229.2
7.472	280.6
7.473	334.8
7.474	390.6
7.475	447.9
7.476	506.2
7.477	564.4
7.478	621.3
7.479	675.3
7.48	725.6
7.481	771.2
7.482	810.6
7.483	842
7.484	864
7.485	876.5
7.486	879.1
7.487	871.3
7.488	852.5
7.489	822.9
7.49	784.1
7.491	737.3
7.492	683.6
7.493	624
7.494	560.6
7.495	495.4
7.496	430.4
7.497	367.2
7.498	306.9
7.499	251.4
7.5	201.8
7.501	158.7
7.502	122.5
7.503	93.1
7.504	71.1
7.505	55.4
7.506	45.1
7.507	39.4
7.508	37.1
7.509	38
7.51	40.2
7.511	42.7
7.512	44.6
7.513	45.2
7.514	44.7
7.515	42.2
7.516	37.5
7.517	30.7
7.518	22.1
7.519	12.8
7.52	2.7
7.521	-7.5
7.522	-17.3
7.523	-26.1
7.524	-33.2
7.525	-38.4
7.526	-41.4
7.527	-42.3
7.528	-41.2
7.529	-38
7.53	-33.3
7.531	-27.4
7.532	-21
7.533	-14.5
7.534	-8.3
7.535	-3.1
7.536	0.7
7.537	3
7.538	3.5
7.539	2.2
7.54	-0.8
7.541	-5.4
7.542	-11.1
7.543	-17.7
7.544	-24.6
7.545	-31.3
7.546	-37.5
7.547	-42.9
7.548	-46.9
7.549	-49.5
7.55	-50.5
7.551	-49.9
7.552	-47.9
7.553	-44.6
7.554	-40.4
7.555	-35.5
7.556	-30.4
7.557	-25.3
7.558	-20.6
7.559	-16.7
7.56	-13.5
7.561	-11.4
7.562	-10.3
7.563	-10.1
7.564	-10.6
7.565	-11.7
7.566	-13.2
7.567	-14.7
7.568	-16
7.569	-16.9
7.57	-17.2
7.571	-16.7
7.572	-15.6
7.573	-13.6
7.574	-11.1
7.575	-8.1
7.576	-4.8
7.577	-1.4
7.578	1.9
7.579	4.8
7.58	7.3
7.581	9.2
7.582	10.4
7.583	11.2
7.584	11.3
7.585	11.1
7.586	10.6
7.587	10
7.588	9.6
7.589	9.3
7.59	9.5
7.591	10.1
7.592	11.1
7.593	12.7
7.594	14.6
7.595	16.7
7.596	19
7.597	21.2
7.598	23.2
7.599	24.8
7.6	25.9
7.601	26.6
7.602	26.6
7.603	26.2
7.604	25.4
7.605	24.2
7.606	23
7.607	21.7
7.608	20.8
7.609	20.2
7.61	20.1
7.611	20.6
7.612	21.8
7.613	23.5
7.614	25.8
7.615	28.5
7.616	31.4
7.617	34.5
7.618	37.4
7.619	40.2
7.62	42.5
7.621	44.4
7.622	45.8
7.623	46.6
7.624	46.9
7.625	46.8
7.626	46.4
7.627	45.7
7.628	45.1
7.629	44.5
7.63	44.1
7.631	44
7.632	44.2
7.633	44.8
7.634	45.8
7.635	47.1
7.636	48.7
7.637	50.6
7.638	52.6
7.639	54.7
7.64	56.9
7.641	59.1
7.642	61.4
7.643	63.7
7.644	65.9
7.645	68.3
7.646	70.7
7.647	73.2
7.648	75.9
7.649	78.5
7.65	81.2
7.651	83.8
7.652	86.3
7.653	88.5
7.654	90.4
7.655	91.8
7.656	92.7
7.657	93
7.658	92.9
7.659	92.2
7.66	91.1
7.661	89.9
7.662	88.6
7.663	87.6
7.664	87
7.665	87.1
7.666	88
7.667	89.9
7.668	93.1
7.669	97.3
7.67	102.6
7.671	108.7
7.672	115.6
7.673	123
7.674	130.5
7.675	137.7
7.676	144.4
7.677	150.4
7.678	155.3
7.679	159
7.68	161.5
7.681	162.7
7.682	162.9
7.683	162.2
7.684	160.8
7.685	159.1
7.686	157.4
7.687	156
7.688	155.3
7.689	155.2
7.69	156.1
7.691	157.9
7.692	160.7
7.693	164.4
7.694	168.6
7.695	173.2
7.696	177.9
7.697	182.4
7.698	186.4
7.699	189.6
7.7	192
7.701	193.4
7.702	193.9
7.703	193.4
7.704	192.1
7.705	190.3
7.706	188.2
7.707	186
7.708	184.1
7.709	182.5
7.71	181.5
7.711	181.2
7.712	181.6
7.713	182.6
7.714	184.2
7.715	186
7.716	187.9
7.717	189.7
7.718	191.1
7.719	191.8
7.72	191.7
7.721	190.6
7.722	188.7
7.723	185.7
7.724	182
7.725	177.6
7.726	172.9
7.727	168.1
7.728	163.3
7.729	158.9
7.73	155.1
7.731	152.1
7.732	149.9
7.733	148.5
7.734	147.8
7.735	147.7
7.736	148.1
7.737	148.6
7.738	148.9
7.739	148.8
7.74	148
7.741	146.5
7.742	143.9
7.743	140.2
7.744	135.4
7.745	129.6
7.746	122.9
7.747	115.4
7.748	107.3
7.749	98.9
7.75	90.5
7.751	82.1
7.752	74
7.753	66.1
7.754	58.8
7.755	52
7.756	45.5
7.757	39.5
7.758	33.6
7.759	27.9
7.76	22.4
7.761	16.8
7.762	11.1
7.763	5.2
7.764	-0.6
7.765	-6.4
7.766	-12.3
7.767	-17.9
7.768	-23.4
7.769	-28.3
7.77	-32.6
7.771	-36.3
7.772	-39.4
7.773	-41.8
7.774	-43.4
7.775	-44.4
7.776	-44.9
7.777	-45.2
7.778	-45.2
7.779	-45.2
7.78	-45.4
7.781	-45.8
7.782	-46.7
7.783	-48.1
7.784	-50
7.785	-52.4
7.786	-55.3
7.787	-58.5
7.788	-62
7.789	-65.5
7.79	-69
7.791	-72.3
7.792	-75.2
7.793	-77.7
7.794	-79.6
7.795	-80.9
7.796	-81.7
7.797	-81.9
7.798	-81.7
7.799	-80.9
7.8	-79.8
7.801	-78.3
7.802	-76.7
7.803	-75
7.804	-73.2
7.805	-71.4
7.806	-69.7
7.807	-68.1
7.808	-66.6
7.809	-65.2
7.81	-63.9
7.811	-62.9
7.812	-62
7.813	-61.4
7.814	-61.1
7.815	-61
7.816	-61.3
7.817	-61.9
7.818	-62.8
7.819	-64.1
7.82	-65.6
7.821	-67.2
7.822	-68.9
7.823	-70.6
7.824	-72.2
7.825	-73.4
7.826	-74.3
7.827	-74.6
7.828	-74.3
7.829	-73.5
7.83	-71.9
7.831	-69.8
7.832	-67.2
7.833	-64.3
7.834	-61.2
7.835	-58.1
7.836	-55.3
7.837	-52.9
7.838	-51.1
7.839	-50.1
7.84	-50.1
7.841	-50.9
7.842	-52.8
7.843	-55.5
7.844	-59
7.845	-63.1
7.846	-67.6
7.847	-72.3
7.848	-77
7.849	-81.4
7.85	-85.4
7.851	-88.7
7.852	-91.4
7.853	-93.2
7.854	-94.2
7.855	-94.5
7.856	-94.1
7.857	-93.2
7.858	-91.7
7.859	-89.9
7.86	-88
7.861	-85.9
7.862	-83.9
7.863	-82
7.864	-80.1
7.865	-78.4
7.866	-76.8
7.867	-75.3
7.868	-73.9
7.869	-72.6
7.87	-71.2
7.871	-69.9
7.872	-68.6
7.873	-67.4
7.874	-66.3
7.875	-65.4
7.876	-64.8
7.877	-64.4
7.878	-64.3
7.879	-64.6
7.88	-65.1
7.881	-65.9
7.882	-66.9
7.883	-67.8
7.884	-68.8
7.885	-69.4
7.886	-69.7
7.887	-69.5
7.888	-68.7
7.889	-67.3
7.89	-65.2
7.891	-62.4
7.892	-59.2
7.893	-55.6
7.894	-51.9
7.895	-48.2
7.896	-44.8
7.897	-41.8
7.898	-39.6
7.899	-38.2
7.9	-37.8
7.901	-38.3
7.902	-39.7
7.903	-41.9
7.904	-44.7
7.905	-48
7.906	-51.4
7.907	-54.8
7.908	-57.8
7.909	-60.3
7.91	-62.2
7.911	-63.2
7.912	-63.4
7.913	-62.7
7.914	-61.3
7.915	-59.4
7.916	-57.1
7.917	-54.5
7.918	-52
7.919	-49.8
7.92	-47.9
7.921	-46.5
7.922	-45.6
7.923	-45.3
7.924	-45.5
7.925	-46.1
7.926	-46.9
7.927	-47.8
7.928	-48.7
7.929	-49.4
7.93	-49.7
7.931	-49.7
7.932	-49.3
7.933	-48.6
7.934	-47.7
7.935	-46.6
7.936	-45.7
7.937	-44.9
7.938	-44.6
7.939	-44.9
7.94	-45.9
7.941	-47.6
7.942	-50
7.943	-53.1
7.944	-56.7
7.945	-60.7
7.946	-64.8
7.947	-68.7
7.948	-72.3
7.949	-75.2
7.95	-77.3
7.951	-78.5
7.952	-78.8
7.953	-78
7.954	-76.2
7.955	-73.7
7.956	-70.6
7.957	-67.1
7.958	-63.4
7.959	-59.9
7.96	-56.7
7.961	-53.9
7.962	-51.8
7.963	-50.3
7.964	-49.5
7.965	-49.4
7.966	-49.7
7.967	-50.3
7.968	-51.1
7.969	-52
7.97	-52.7
7.971	-53.2
7.972	-53.3
7.973	-52.9
7.974	-52.3
7.975	-51.3
7.976	-50.1
7.977	-48.8
7.978	-47.6
7.979	-46.5
7.98	-45.7
7.981	-45.2
7.982	-45.2
7.983	-45.6
7.984	-46.3
7.985	-47.2
7.986	-48.3
7.987	-49.3
7.988	-50.2
7.989	-50.7
7.99	-50.8
7.991	-50.4
7.992	-49.4
7.993	-47.9
7.994	-45.9
7.995	-43.6
7.996	-41.1
7.997	-38.6
7.998	-36.3
7.999	-34.3
8	-32.9
8.001	-32
8.002	-31.8
8.003	-32.2
8.004	-33.3
8.005	-34.9
8.006	-36.8
8.007	-39
8.008	-41.2
8.009	-43.3
8.01	-45.1
8.011	-46.5
8.012	-47.5
8.013	-48.1
8.014	-48.2
8.015	-48.1
8.016	-47.8
8.017	-47.6
8.018	-47.5
8.019	-47.8
8.02	-48.6
8.021	-50.1
8.022	-52.1
8.023	-54.8
8.024	-57.9
8.025	-61.5
8.026	-65.2
8.027	-68.8
8.028	-72.2
8.029	-74.9
8.03	-76.8
8.031	-77.8
8.032	-77.7
8.033	-76.3
8.034	-73.8
8.035	-70.2
8.036	-65.8
8.037	-60.6
8.038	-55.1
8.039	-49.4
8.04	-44
8.041	-39.1
8.042	-34.8
8.043	-31.5
8.044	-29.1
8.045	-27.9
8.046	-27.6
8.047	-28.4
8.048	-29.8
8.049	-31.9
8.05	-34.3
8.051	-36.8
8.052	-39.2
8.053	-41.3
8.054	-42.9
8.055	-43.9
8.056	-44.3
8.057	-44
8.058	-43.1
8.059	-41.8
8.06	-40.1
8.061	-38.3
8.062	-36.4
8.063	-34.7
8.064	-33.2
8.065	-32.2
8.066	-31.6
8.067	-31.4
8.068	-31.8
8.069	-32.6
8.07	-33.7
8.071	-35.1
8.072	-36.6
8.073	-38.2
8.074	-39.6
8.075	-40.9
8.076	-41.9
8.077	-42.6
8.078	-42.9
8.079	-42.8
8.08	-42.4
8.081	-41.6
8.082	-40.6
8.083	-39.4
8.084	-37.9
8.085	-36.4
8.086	-34.7
8.087	-32.9
8.088	-31.2
8.089	-29.4
8.09	-27.7
8.091	-25.9
8.092	-24.3
8.093	-22.7
8.094	-21.3
8.095	-20.1
8.096	-19.1
8.097	-18.4
8.098	-18.1
8.099	-18.3
8.1	-18.9
8.101	-20.2
8.102	-21.9
8.103	-24.2
8.104	-27.1
8.105	-30.4
8.106	-34.2
8.107	-38.1
8.108	-42.2
8.109	-46.1
8.11	-49.9
8.111	-53.2
8.112	-56
8.113	-58.1
8.114	-59.3
8.115	-59.6
8.116	-59
8.117	-57.4
8.118	-54.8
8.119	-51.5
8.12	-47.5
8.121	-42.9
8.122	-38
8.123	-33
8.124	-28
8.125	-23.4
8.126	-19.1
8.127	-15.5
8.128	-12.7
8.129	-10.8
8.13	-9.8
8.131	-9.8
8.132	-10.6
8.133	-12.3
8.134	-14.8
8.135	-18
8.136	-21.6
8.137	-25.6
8.138	-29.7
8.139	-33.9
8.14	-38
8.141	-41.8
8.142	-45.3
8.143	-48.3
8.144	-50.8
8.145	-52.8
8.146	-54.2
8.147	-55.1
8.148	-55.6
8.149	-55.5
8.15	-55.1
8.151	-54.3
8.152	-53.2
8.153	-51.9
8.154	-50.3
8.155	-48.4
8.156	-46.5
8.157	-44.3
8.158	-42
8.159	-39.5
8.16	-36.9
8.161	-34.3
8.162	-31.5
8.163	-28.8
8.164	-26.1
8.165	-23.5
8.166	-21.2
8.167	-19.2
8.168	-17.5
8.169	-16.3
8.17	-15.7
8.171	-15.6
8.172	-15.9
8.173	-16.7
8.174	-17.9
8.175	-19.4
8.176	-20.9
8.177	-22.3
8.178	-23.4
8.179	-24
8.18	-23.9
8.181	-23
8.182	-21.2
8.183	-18.3
8.184	-14.4
8.185	-9.7
8.186	-4.1
8.187	2.2
8.188	8.8
8.189	15.5
8.19	22.1
8.191	28.2
8.192	33.7
8.193	38.3
8.194	41.7
8.195	44
8.196	45.2
8.197	45.3
8.198	44.3
8.199	42.5
8.2	40.1
8.201	37.3
8.202	34.5
8.203	31.7
8.204	29.2
8.205	27.2
8.206	25.7
8.207	24.7
8.208	24.3
8.209	24.2
8.21	24.4
8.211	24.7
8.212	24.9
8.213	24.9
8.214	24.6
8.215	23.9
8.216	22.8
8.217	21.3
8.218	19.7
8.219	18.1
8.22	16.8
8.221	15.9
8.222	15.7
8.223	16.3
8.224	17.9
8.225	20.7
8.226	24.4
8.227	29
8.228	34
8.229	39.4
8.23	44.5
8.231	49.1
8.232	52.5
8.233	54.3
8.234	54.3
8.235	52
8.236	47.5
8.237	40.7
8.238	31.7
8.239	20.8
8.24	8.5
8.241	-4.7
8.242	-18.3
8.243	-31.6
8.244	-44
8.245	-55
8.246	-64.1
8.247	-71.2
8.248	-75.9
8.249	-78.3
8.25	-78.5
8.251	-77
8.252	-74.1
8.253	-70.2
8.254	-65.7
8.255	-61.4
8.256	-57.5
8.257	-54.4
8.258	-52.3
8.259	-51.2
8.26	-51.1
8.261	-51.9
8.262	-53.2
8.263	-54.8
8.264	-56.1
8.265	-56.9
8.266	-56.8
8.267	-55.7
8.268	-53.3
8.269	-49.8
8.27	-45.3
8.271	-40
8.272	-34.4
8.273	-28.8
8.274	-23.8
8.275	-19.7
8.276	-17
8.277	-15.9
8.278	-16.6
8.279	-19.1
8.28	-23.1
8.281	-28.3
8.282	-34.4
8.283	-40.9
8.284	-47.2
8.285	-52.7
8.286	-57
8.287	-59.7
8.288	-60.8
8.289	-60.1
8.29	-57.9
8.291	-54.4
8.292	-50.2
8.293	-45.9
8.294	-42.2
8.295	-39.7
8.296	-39.1
8.297	-40.9
8.298	-45.1
8.299	-52.1
8.3	-61.9
8.301	-74
8.302	-87.9
8.303	-102.4
8.304	-117
8.305	-130.9
8.306	-143.1
8.307	-152.5
8.308	-157.7
8.309	-158.8
8.31	-155.3
8.311	-147
8.312	-133.9
8.313	-115.1
8.314	-92
8.315	-64.9
8.316	-34.5
8.317	-1.1
8.318	35.6
8.319	74.3
8.32	114.9
8.321	157.3
8.322	201.4
8.323	247.6
8.324	295.5
8.325	345.2
8.326	397
8.327	450.6
8.328	505.6
8.329	560.8
8.33	616.1
8.331	670.5
8.332	722.5
8.333	770.2
8.334	811.7
8.335	846
8.336	871.9
8.337	887.8
8.338	891.9
8.339	883.6
8.34	863.2
8.341	831.3
8.342	788.3
8.343	735
8.344	673.1
8.345	605.2
8.346	533.6
8.347	460.5
8.348	388
8.349	318.6
8.35	254.3
8.351	196.8
8.352	147.2
8.353	105.9
8.354	73.7
8.355	50
8.356	33.9
8.357	24.4
8.358	20.1
8.359	20.3
8.36	22.9
8.361	26.3
8.362	29.4
8.363	31.1
8.364	31.6
8.365	30
8.366	26
8.367	19.9
8.368	12.2
8.369	4.3
8.37	-3.7
8.371	-11
8.372	-17.1
8.373	-21.4
8.374	-23.3
8.375	-22.7
8.376	-20
8.377	-15.4
8.378	-9.5
8.379	-2.7
8.38	4.2
8.381	10.6
8.382	15.7
8.383	19
8.384	20.3
8.385	19.3
8.386	16.1
8.387	10.9
8.388	4.1
8.389	-3.9
8.39	-12.3
8.391	-20.7
8.392	-28.5
8.393	-35
8.394	-40
8.395	-43.2
8.396	-44.5
8.397	-44
8.398	-41.9
8.399	-38.6
8.4	-34.5
8.401	-30.1
8.402	-25.7
8.403	-21.9
8.404	-18.8
8.405	-16.8
8.406	-16
8.407	-16.2
8.408	-17.3
8.409	-19
8.41	-21
8.411	-23
8.412	-24.7
8.413	-25.6
8.414	-25.5
8.415	-24.3
8.416	-22
8.417	-18.6
8.418	-14.2
8.419	-9.2
8.42	-3.9
8.421	1.5
8.422	6.5
8.423	10.9
8.424	14.3
8.425	16.7
8.426	17.8
8.427	17.8
8.428	16.7
8.429	14.6
8.43	11.9
8.431	8.7
8.432	5.5
8.433	2.5
8.434	-0.2
8.435	-2.2
8.436	-3.5
8.437	-4
8.438	-3.7
8.439	-2.8
8.44	-1.2
8.441	0.7
8.442	2.9
8.443	5.1
8.444	7.3
8.445	9.3
8.446	11
8.447	12.5
8.448	13.8
8.449	14.9
8.45	16
8.451	17.1
8.452	18.4
8.453	19.9
8.454	21.8
8.455	24
8.456	26.5
8.457	29.2
8.458	32.1
8.459	34.9
8.46	37.6
8.461	39.9
8.462	41.8
8.463	43.1
8.464	43.6
8.465	43.5
8.466	42.6
8.467	41.2
8.468	39.3
8.469	37
8.47	34.7
8.471	32.4
8.472	30.5
8.473	29.1
8.474	28.3
8.475	28.3
8.476	29.1
8.477	30.7
8.478	33.1
8.479	36.2
8.48	39.7
8.481	43.5
8.482	47.5
8.483	51.5
8.484	55.2
8.485	58.5
8.486	61.2
8.487	63.4
8.488	64.9
8.489	65.9
8.49	66.2
8.491	66.1
8.492	65.6
8.493	65
8.494	64.3
8.495	63.7
8.496	63.3
8.497	63.3
8.498	63.9
8.499	64.9
8.5	66.6
8.501	68.8
8.502	71.5
8.503	74.8
8.504	78.5
8.505	82.4
8.506	86.5
8.507	90.7
8.508	94.8
8.509	98.7
8.51	102.3
8.511	105.6
8.512	108.4
8.513	110.8
8.514	112.7
8.515	114.3
8.516	115.5
8.517	116.5
8.518	117.5
8.519	118.6
8.52	119.8
8.521	121.4
8.522	123.5
8.523	126.2
8.524	129.6
8.525	133.6
8.526	138.4
8.527	143.8
8.528	149.7
8.529	156
8.53	162.4
8.531	168.8
8.532	175
8.533	180.7
8.534	185.7
8.535	189.8
8.536	193
8.537	195.3
8.538	196.5
8.539	196.7
8.54	196
8.541	194.7
8.542	193
8.543	190.9
8.544	188.8
8.545	186.9
8.546	185.3
8.547	184.2
8.548	183.8
8.549	183.9
8.55	184.6
8.551	185.8
8.552	187.4
8.553	189.2
8.554	191
8.555	192.8
8.556	194.2
8.557	195.3
8.558	195.8
8.559	195.9
8.56	195.5
8.561	194.7
8.562	193.6
8.563	192.2
8.564	190.9
8.565	189.7
8.566	188.8
8.567	188.3
8.568	188.1
8.569	188.3
8.57	188.8
8.571	189.6
8.572	190.4
8.573	191
8.574	191.2
8.575	190.9
8.576	189.9
8.577	188.1
8.578	185.2
8.579	181.5
8.58	176.8
8.581	171.5
8.582	165.5
8.583	159.2
8.584	152.7
8.585	146.5
8.586	140.6
8.587	135.2
8.588	130.5
8.589	126.7
8.59	123.6
8.591	121.3
8.592	119.5
8.593	118.1
8.594	116.9
8.595	115.7
8.596	114.1
8.597	112.1
8.598	109.3
8.599	105.8
8.6	101.6
8.601	96.6
8.602	91
8.603	84.8
8.604	78.4
8.605	72.1
8.606	65.9
8.607	60.2
8.608	54.9
8.609	50.4
8.61	46.7
8.611	43.7
8.612	41.3
8.613	39.3
8.614	37.7
8.615	36.1
8.616	34.4
8.617	32.2
8.618	29.4
8.619	25.9
8.62	21.6
8.621	16.4
8.622	10.5
8.623	3.8
8.624	-3.3
8.625	-10.6
8.626	-18
8.627	-25.1
8.628	-31.9
8.629	-37.9
8.63	-43.1
8.631	-47.4
8.632	-50.7
8.633	-53.2
8.634	-54.7
8.635	-55.4
8.636	-55.5
8.637	-55.1
8.638	-54.5
8.639	-53.6
8.64	-52.8
8.641	-52
8.642	-51.4
8.643	-51
8.644	-50.8
8.645	-50.7
8.646	-50.9
8.647	-51.3
8.648	-51.8
8.649	-52.3
8.65	-52.9
8.651	-53.7
8.652	-54.5
8.653	-55.5
8.654	-56.7
8.655	-57.9
8.656	-59.4
8.657	-61
8.658	-62.8
8.659	-64.6
8.66	-66.5
8.661	-68.2
8.662	-69.8
8.663	-71
8.664	-71.8
8.665	-72.2
8.666	-72
8.667	-71.2
8.668	-70
8.669	-68.2
8.67	-66.2
8.671	-64
8.672	-61.9
8.673	-60
8.674	-58.5
8.675	-57.7
8.676	-57.6
8.677	-58.3
8.678	-59.9
8.679	-62.3
8.68	-65.5
8.681	-69.1
8.682	-73.2
8.683	-77.3
8.684	-81.3
8.685	-84.9
8.686	-87.8
8.687	-89.9
8.688	-91.1
8.689	-91.3
8.69	-90.6
8.691	-89
8.692	-86.7
8.693	-83.9
8.694	-80.9
8.695	-77.9
8.696	-75.3
8.697	-73.1
8.698	-71.7
8.699	-71
8.7	-71.2
8.701	-72.2
8.702	-73.9
8.703	-76.2
8.704	-78.8
8.705	-81.5
8.706	-84.1
8.707	-86.3
8.708	-87.9
8.709	-88.7
8.71	-88.7
8.711	-87.8
8.712	-86.1
8.713	-83.7
8.714	-80.8
8.715	-77.5
8.716	-74.1
8.717	-70.8
8.718	-67.8
8.719	-65.3
8.72	-63.4
8.721	-62.2
8.722	-61.6
8.723	-61.8
8.724	-62.5
8.725	-63.7
8.726	-65.1
8.727	-66.6
8.728	-68
8.729	-69.2
8.73	-70
8.731	-70.4
8.732	-70.3
8.733	-69.7
8.734	-68.7
8.735	-67.3
8.736	-65.6
8.737	-63.8
8.738	-61.9
8.739	-60.2
8.74	-58.6
8.741	-57.3
8.742	-56.3
8.743	-55.5
8.744	-55
8.745	-54.7
8.746	-54.5
8.747	-54.5
8.748	-54.5
8.749	-54.4
8.75	-54.4
8.751	-54.3
8.752	-54.2
8.753	-54.2
8.754	-54.4
8.755	-54.8
8.756	-55.4
8.757	-56.5
8.758	-58.1
8.759	-60.1
8.76	-62.7
8.761	-65.7
8.762	-69.1
8.763	-72.8
8.764	-76.6
8.765	-80.4
8.766	-84
8.767	-87.2
8.768	-89.9
8.769	-91.8
8.77	-93
8.771	-93.4
8.772	-92.9
8.773	-91.6
8.774	-89.4
8.775	-86.7
8.776	-83.4
8.777	-79.8
8.778	-76
8.779	-72
8.78	-68.2
8.781	-64.5
8.782	-61
8.783	-57.9
8.784	-55.1
8.785	-52.6
8.786	-50.4
8.787	-48.5
8.788	-46.7
8.789	-45.1
8.79	-43.7
8.791	-42.3
8.792	-41.1
8.793	-39.9
8.794	-38.9
8.795	-38
8.796	-37.3
8.797	-36.9
8.798	-36.7
8.799	-36.8
8.8	-37.1
8.801	-37.6
8.802	-38.3
8.803	-39.1
8.804	-39.9
8.805	-40.6
8.806	-41.2
8.807	-41.5
8.808	-41.5
8.809	-41.1
8.81	-40.4
8.811	-39.4
8.812	-38.2
8.813	-36.8
8.814	-35.4
8.815	-34
8.816	-33
8.817	-32.2
8.818	-31.9
8.819	-32.2
8.82	-33
8.821	-34.3
8.822	-36.1
8.823	-38.2
8.824	-40.6
8.825	-43
8.826	-45.2
8.827	-47.2
8.828	-48.6
8.829	-49.5
8.83	-49.7
8.831	-49.3
8.832	-48.1
8.833	-46.4
8.834	-44.2
8.835	-41.7
8.836	-39.2
8.837	-36.7
8.838	-34.6
8.839	-33
8.84	-31.9
8.841	-31.6
8.842	-32
8.843	-33.1
8.844	-34.8
8.845	-36.9
8.846	-39.4
8.847	-42
8.848	-44.4
8.849	-46.6
8.85	-48.3
8.851	-49.5
8.852	-50
8.853	-49.9
8.854	-49.3
8.855	-48.1
8.856	-46.6
8.857	-44.9
8.858	-43.3
8.859	-41.9
8.86	-40.9
8.861	-40.3
8.862	-40.3
8.863	-41
8.864	-42.2
8.865	-43.9
8.866	-46
8.867	-48.2
8.868	-50.5
8.869	-52.6
8.87	-54.4
8.871	-55.7
8.872	-56.5
8.873	-56.6
8.874	-56.2
8.875	-55.2
8.876	-53.8
8.877	-52.1
8.878	-50.4
8.879	-48.7
8.88	-47.3
8.881	-46.3
8.882	-45.7
8.883	-45.7
8.884	-46.3
8.885	-47.3
8.886	-48.8
8.887	-50.4
8.888	-52.2
8.889	-53.9
8.89	-55.3
8.891	-56.2
8.892	-56.7
8.893	-56.5
8.894	-55.7
8.895	-54.3
8.896	-52.4
8.897	-50.2
8.898	-47.6
8.899	-45
8.9	-42.5
8.901	-40.3
8.902	-38.4
8.903	-37
8.904	-36.1
8.905	-35.7
8.906	-35.8
8.907	-36.3
8.908	-37
8.909	-37.8
8.91	-38.6
8.911	-39.2
8.912	-39.7
8.913	-39.7
8.914	-39.5
8.915	-38.9
8.916	-38
8.917	-36.8
8.918	-35.6
8.919	-34.3
8.92	-33.2
8.921	-32.4
8.922	-31.8
8.923	-31.7
8.924	-32
8.925	-32.8
8.926	-33.8
8.927	-35.2
8.928	-36.7
8.929	-38.3
8.93	-39.8
8.931	-41.1
8.932	-42.1
8.933	-42.7
8.934	-42.9
8.935	-42.6
8.936	-42
8.937	-41.1
8.938	-39.9
8.939	-38.7
8.94	-37.5
8.941	-36.4
8.942	-35.6
8.943	-35.2
8.944	-35.1
8.945	-35.5
8.946	-36.4
8.947	-37.6
8.948	-39.1
8.949	-40.8
8.95	-42.7
8.951	-44.6
8.952	-46.5
8.953	-48.1
8.954	-49.4
8.955	-50.3
8.956	-50.9
8.957	-51
8.958	-50.7
8.959	-49.9
8.96	-48.7
8.961	-47.2
8.962	-45.3
8.963	-43.2
8.964	-40.9
8.965	-38.4
8.966	-35.8
8.967	-33.3
8.968	-30.8
8.969	-28.5
8.97	-26.4
8.971	-24.7
8.972	-23.2
8.973	-22.2
8.974	-21.7
8.975	-21.7
8.976	-22.2
8.977	-23.1
8.978	-24.5
8.979	-26.3
8.98	-28.4
8.981	-30.7
8.982	-33
8.983	-35.1
8.984	-37
8.985	-38.5
8.986	-39.5
8.987	-40
8.988	-39.7
8.989	-38.9
8.99	-37.5
8.991	-35.6
8.992	-33.3
8.993	-30.7
8.994	-28
8.995	-25.4
8.996	-23
8.997	-21
8.998	-19.3
8.999	-18.1
9	-17.3
9.001	-17
9.002	-16.9
9.003	-17
9.004	-17.1
9.005	-17
9.006	-16.7
9.007	-15.8
9.008	-14.3
9.009	-12.2
9.01	-9.5
9.011	-6.2
9.012	-2.3
9.013	2
9.014	6.4
9.015	10.9
9.016	15.1
9.017	19
9.018	22.4
9.019	25.1
9.02	27.1
9.021	28.3
9.022	28.9
9.023	28.8
9.024	28.2
9.025	27.3
9.026	26.1
9.027	25
9.028	23.9
9.029	23
9.03	22.4
9.031	22.2
9.032	22.1
9.033	22.3
9.034	22.7
9.035	23
9.036	23.3
9.037	23.4
9.038	23.2
9.039	22.6
9.04	21.8
9.041	20.7
9.042	19.4
9.043	17.9
9.044	16.4
9.045	15.1
9.046	14
9.047	13.2
9.048	12.8
9.049	12.7
9.05	13
9.051	13.6
9.052	14.2
9.053	14.7
9.054	14.9
9.055	14.7
9.056	13.8
9.057	12.2
9.058	9.5
9.059	6.1
9.06	1.7
9.061	-3.3
9.062	-8.9
9.063	-14.8
9.064	-20.7
9.065	-26.3
9.066	-31.4
9.067	-35.7
9.068	-39.1
9.069	-41.4
9.07	-42.6
9.071	-42.9
9.072	-42.3
9.073	-41.1
9.074	-39.5
9.075	-37.8
9.076	-36.4
9.077	-35.5
9.078	-35.4
9.079	-36
9.08	-37.7
9.081	-40.2
9.082	-43.5
9.083	-47.4
9.084	-51.7
9.085	-55.9
9.086	-60
9.087	-63.5
9.088	-66.2
9.089	-68.1
9.09	-68.9
9.091	-68.8
9.092	-67.8
9.093	-66.2
9.094	-64.1
9.095	-61.9
9.096	-59.9
9.097	-58.4
9.098	-57.5
9.099	-57.4
9.1	-58.1
9.101	-59.7
9.102	-62
9.103	-64.8
9.104	-67.7
9.105	-70.4
9.106	-72.5
9.107	-73.8
9.108	-74.1
9.109	-73
9.11	-70.6
9.111	-67
9.112	-62.3
9.113	-56.9
9.114	-51.2
9.115	-45.7
9.116	-40.9
9.117	-37.3
9.118	-35.3
9.119	-35.2
9.12	-37.4
9.121	-41.9
9.122	-48.5
9.123	-57
9.124	-67.1
9.125	-78.3
9.126	-90.1
9.127	-101.8
9.128	-112.3
9.129	-121.5
9.13	-128.9
9.131	-134.1
9.132	-136.6
9.133	-135.5
9.134	-131.4
9.135	-124.2
9.136	-114.2
9.137	-101
9.138	-84
9.139	-64
9.14	-41
9.141	-15
9.142	14.3
9.143	47.8
9.144	84.7
9.145	125.4
9.146	170.1
9.147	218.8
9.148	271.3
9.149	326.9
9.15	385.2
9.151	445.4
9.152	506.5
9.153	566.5
9.154	623.9
9.155	677.4
9.156	725.5
9.157	766.5
9.158	798
9.159	818.7
9.16	828.2
9.161	826.1
9.162	811.9
9.163	785.2
9.164	746.8
9.165	698.3
9.166	641.4
9.167	577.7
9.168	508.8
9.169	437
9.17	364.8
9.171	294.4
9.172	227.4
9.173	165.2
9.174	109.7
9.175	61.4
9.176	20.8
9.177	-11.9
9.178	-37.1
9.179	-54.8
9.18	-66.1
9.181	-72.4
9.182	-74.5
9.183	-73.5
9.184	-69.7
9.185	-64.6
9.186	-59.3
9.187	-54.2
9.188	-49.6
9.189	-45.2
9.19	-41.5
9.191	-38.6
9.192	-36.4
9.193	-34.6
9.194	-32.5
9.195	-30.3
9.196	-28
9.197	-25.5
9.198	-22.7
9.199	-19.7
9.2	-16.6
9.201	-13.6
9.202	-10.9
9.203	-8.7
9.204	-7.3
9.205	-6.6
9.206	-6.6
9.207	-7.4
9.208	-8.9
9.209	-10.9
9.21	-13.2
9.211	-15.5
9.212	-17.6
9.213	-19.3
9.214	-20.3
9.215	-20.6
9.216	-20.1
9.217	-18.8
9.218	-16.8
9.219	-14.2
9.22	-11.2
9.221	-8
9.222	-4.9
9.223	-2.1
9.224	0.1
9.225	1.7
9.226	2.5
9.227	2.6
9.228	1.9
9.229	0.4
9.23	-1.5
9.231	-3.9
9.232	-6.5
9.233	-9.1
9.234	-11.5
9.235	-13.6
9.236	-15.3
9.237	-16.4
9.238	-17.1
9.239	-17.2
9.24	-16.8
9.241	-16.1
9.242	-15.1
9.243	-13.8
9.244	-12.5
9.245	-11.2
9.246	-9.9
9.247	-8.7
9.248	-7.6
9.249	-6.6
9.25	-5.6
9.251	-4.7
9.252	-3.9
9.253	-2.9
9.254	-1.9
9.255	-0.9
9.256	0.3
9.257	1.4
9.258	2.6
9.259	3.8
9.26	4.8
9.261	5.8
9.262	6.6
9.263	7.2
9.264	7.7
9.265	8
9.266	8.1
9.267	8.3
9.268	8.4
9.269	8.6
9.27	8.9
9.271	9.4
9.272	10.1
9.273	11.1
9.274	12.3
9.275	13.6
9.276	15.1
9.277	16.7
9.278	18.3
9.279	19.7
9.28	21
9.281	22.1
9.282	22.9
9.283	23.4
9.284	23.7
9.285	23.8
9.286	23.7
9.287	23.6
9.288	23.7
9.289	23.9
9.29	24.3
9.291	25.2
9.292	26.4
9.293	28.2
9.294	30.4
9.295	32.9
9.296	35.8
9.297	38.9
9.298	42.1
9.299	45.2
9.3	48.2
9.301	50.9
9.302	53.3
9.303	55.3
9.304	56.8
9.305	57.8
9.306	58.4
9.307	58.7
9.308	58.7
9.309	58.6
9.31	58.4
9.311	58.2
9.312	58.2
9.313	58.4
9.314	58.7
9.315	59.2
9.316	59.9
9.317	60.7
9.318	61.7
9.319	62.7
9.32	63.7
9.321	64.6
9.322	65.3
9.323	66.1
9.324	66.7
9.325	67.3
9.326	67.9
9.327	68.6
9.328	69.6
9.329	70.8
9.33	72.3
9.331	74.3
9.332	76.7
9.333	79.7
9.334	83
9.335	86.8
9.336	90.9
9.337	95.2
9.338	99.7
9.339	104.2
9.34	108.6
9.341	112.8
9.342	116.8
9.343	120.5
9.344	124
9.345	127.1
9.346	130
9.347	132.7
9.348	135.3
9.349	137.7
9.35	140.2
9.351	142.6
9.352	145.1
9.353	147.7
9.354	150.3
9.355	152.9
9.356	155.4
9.357	157.8
9.358	160.1
9.359	162.1
9.36	163.8
9.361	165.3
9.362	166.5
9.363	167.5
9.364	168.3
9.365	169
9.366	169.8
9.367	170.7
9.368	171.8
9.369	173.2
9.37	174.9
9.371	177
9.372	179.3
9.373	181.9
9.374	184.6
9.375	187.3
9.376	189.9
9.377	192.1
9.378	193.9
9.379	195
9.38	195.5
9.381	195.3
9.382	194.3
9.383	192.7
9.384	190.5
9.385	188
9.386	185.3
9.387	182.6
9.388	180.1
9.389	177.9
9.39	176.4
9.391	175.5
9.392	175.2
9.393	175.6
9.394	176.6
9.395	178
9.396	179.7
9.397	181.3
9.398	182.7
9.399	183.6
9.4	183.8
9.401	183.1
9.402	181.5
9.403	178.8
9.404	175.1
9.405	170.6
9.406	165.3
9.407	159.5
9.408	153.3
9.409	147
9.41	141
9.411	135.4
9.412	130.4
9.413	126
9.414	122.3
9.415	119.4
9.416	117.1
9.417	115.4
9.418	113.8
9.419	112.5
9.42	111.1
9.421	109.4
9.422	107.2
9.423	104.3
9.424	100.9
9.425	96.7
9.426	91.9
9.427	86.4
9.428	80.3
9.429	74
9.43	67.5
9.431	60.9
9.432	54.4
9.433	47.9
9.434	41.9
9.435	36.2
9.436	30.8
9.437	25.7
9.438	20.7
9.439	16.1
9.44	11.6
9.441	7.1
9.442	2.7
9.443	-1.8
9.444	-6.2
9.445	-10.5
9.446	-14.6
9.447	-18.6
9.448	-22.5
9.449	-25.8
9.45	-28.7
9.451	-31.1
9.452	-33
9.453	-34.5
9.454	-35.6
9.455	-36.3
9.456	-36.9
9.457	-37.5
9.458	-38.4
9.459	-39.6
9.46	-41.2
9.461	-43.5
9.462	-46.5
9.463	-50.2
9.464	-54.6
9.465	-59.5
9.466	-64.9
9.467	-70.5
9.468	-76.2
9.469	-81.6
9.47	-86.5
9.471	-90.8
9.472	-94.3
9.473	-96.8
9.474	-98.2
9.475	-98.5
9.476	-97.9
9.477	-96.3
9.478	-93.9
9.479	-91
9.48	-87.6
9.481	-84
9.482	-80.5
9.483	-77.2
9.484	-74.2
9.485	-71.7
9.486	-69.7
9.487	-68.3
9.488	-67.4
9.489	-67.1
9.49	-67.2
9.491	-67.7
9.492	-68.4
9.493	-69.4
9.494	-70.4
9.495	-71.5
9.496	-72.5
9.497	-73.4
9.498	-74.2
9.499	-75
9.5	-75.5
9.501	-76
9.502	-76.4
9.503	-76.7
9.504	-76.9
9.505	-77.1
9.506	-77.4
9.507	-77.6
9.508	-78
9.509	-78.4
9.51	-79
9.511	-79.7
9.512	-80.6
9.513	-81.7
9.514	-83.1
9.515	-84.6
9.516	-86.5
9.517	-88.5
9.518	-90.6
9.519	-92.9
9.52	-95
9.521	-97
9.522	-98.7
9.523	-100.1
9.524	-100.8
9.525	-100.9
9.526	-100.3
9.527	-99
9.528	-96.9
9.529	-94.1
9.53	-90.7
9.531	-87
9.532	-83
9.533	-79
9.534	-75.3
9.535	-72.1
9.536	-69.6
9.537	-68
9.538	-67.3
9.539	-67.6
9.54	-68.9
9.541	-71.1
9.542	-73.9
9.543	-77.2
9.544	-80.7
9.545	-84
9.546	-86.9
9.547	-89.1
9.548	-90.3
9.549	-90.4
9.55	-89.2
9.551	-86.9
9.552	-83.5
9.553	-79.1
9.554	-74.1
9.555	-68.6
9.556	-63.1
9.557	-57.9
9.558	-53.3
9.559	-49.5
9.56	-46.8
9.561	-45.3
9.562	-45.1
9.563	-46
9.564	-48
9.565	-50.9
9.566	-54.5
9.567	-58.3
9.568	-62.2
9.569	-65.9
9.57	-69.2
9.571	-71.8
9.572	-73.7
9.573	-74.8
9.574	-75.3
9.575	-75.1
9.576	-74.4
9.577	-73.4
9.578	-72.3
9.579	-71.3
9.58	-70.6
9.581	-70.2
9.582	-70.3
9.583	-70.8
9.584	-71.8
9.585	-73
9.586	-74.3
9.587	-75.7
9.588	-76.8
9.589	-77.5
9.59	-77.6
9.591	-77.1
9.592	-75.9
9.593	-74
9.594	-71.3
9.595	-68.1
9.596	-64.4
9.597	-60.5
9.598	-56.6
9.599	-52.7
9.6	-49.2
9.601	-46.1
9.602	-43.6
9.603	-41.7
9.604	-40.4
9.605	-39.7
9.606	-39.5
9.607	-39.7
9.608	-40.2
9.609	-40.9
9.61	-41.7
9.611	-42.5
9.612	-43.3
9.613	-43.9
9.614	-44.6
9.615	-45.2
9.616	-45.8
9.617	-46.6
9.618	-47.4
9.619	-48.5
9.62	-49.8
9.621	-51.3
9.622	-52.9
9.623	-54.6
9.624	-56.3
9.625	-57.8
9.626	-59.1
9.627	-59.9
9.628	-60.3
9.629	-60.1
9.63	-59.3
9.631	-58
9.632	-56.1
9.633	-54
9.634	-51.6
9.635	-49.3
9.636	-47.1
9.637	-45.4
9.638	-44.3
9.639	-43.9
9.64	-44.3
9.641	-45.6
9.642	-47.6
9.643	-50.4
9.644	-53.8
9.645	-57.4
9.646	-61.2
9.647	-64.9
9.648	-68.2
9.649	-71
9.65	-73
9.651	-74.3
9.652	-74.7
9.653	-74.3
9.654	-73.1
9.655	-71.5
9.656	-69.4
9.657	-67.1
9.658	-64.9
9.659	-62.8
9.66	-61.2
9.661	-60
9.662	-59.3
9.663	-59.2
9.664	-59.5
9.665	-60.2
9.666	-61.2
9.667	-62.2
9.668	-63.1
9.669	-63.7
9.67	-63.9
9.671	-63.7
9.672	-62.9
9.673	-61.7
9.674	-60
9.675	-58
9.676	-55.8
9.677	-53.6
9.678	-51.6
9.679	-50
9.68	-48.8
9.681	-48.1
9.682	-48
9.683	-48.6
9.684	-49.7
9.685	-51.3
9.686	-53.1
9.687	-55.2
9.688	-57.2
9.689	-59
9.69	-60.6
9.691	-61.8
9.692	-62.4
9.693	-62.6
9.694	-62.3
9.695	-61.7
9.696	-60.7
9.697	-59.5
9.698	-58.3
9.699	-57.2
9.7	-56.2
9.701	-55.6
9.702	-55.3
9.703	-55.3
9.704	-55.6
9.705	-56.2
9.706	-57
9.707	-57.9
9.708	-58.8
9.709	-59.5
9.71	-60
9.711	-60.1
9.712	-60
9.713	-59.4
9.714	-58.4
9.715	-57.1
9.716	-55.5
9.717	-53.7
9.718	-51.7
9.719	-49.7
9.72	-47.6
9.721	-45.6
9.722	-43.6
9.723	-41.6
9.724	-39.7
9.725	-37.9
9.726	-36
9.727	-34.1
9.728	-32.3
9.729	-30.4
9.73	-28.6
9.731	-26.9
9.732	-25.3
9.733	-24
9.734	-23
9.735	-22.5
9.736	-22.5
9.737	-23.1
9.738	-24.3
9.739	-26.1
9.74	-28.5
9.741	-31.3
9.742	-34.4
9.743	-37.5
9.744	-40.5
9.745	-43.2
9.746	-45.4
9.747	-46.8
9.748	-47.3
9.749	-46.7
9.75	-45
9.751	-42.3
9.752	-38.6
9.753	-34
9.754	-28.8
9.755	-23.1
9.756	-17.3
9.757	-11.6
9.758	-6.3
9.759	-1.5
9.76	2.4
9.761	5.6
9.762	7.8
9.763	9
9.764	9.4
9.765	9
9.766	8
9.767	6.6
9.768	5
9.769	3.3
9.77	1.7
9.771	0.3
9.772	-0.7
9.773	-1.4
9.774	-1.8
9.775	-1.8
9.776	-1.6
9.777	-1.2
9.778	-0.8
9.779	-0.4
9.78	-0.2
9.781	-0.1
9.782	-0.1
9.783	-0.5
9.784	-1
9.785	-1.6
9.786	-2.4
9.787	-3.2
9.788	-4.1
9.789	-4.9
9.79	-5.7
9.791	-6.5
9.792	-7.3
9.793	-8.3
9.794	-9.5
9.795	-11
9.796	-12.9
9.797	-15.2
9.798	-18.1
9.799	-21.6
9.8	-25.5
9.801	-29.8
9.802	-34.4
9.803	-39.2
9.804	-43.8
9.805	-48.2
9.806	-52.2
9.807	-55.5
9.808	-58.1
9.809	-59.7
9.81	-60.5
9.811	-60.4
9.812	-59.6
9.813	-58.3
9.814	-56.6
9.815	-54.8
9.816	-53.1
9.817	-51.9
9.818	-51.4
9.819	-51.6
9.82	-52.6
9.821	-54.5
9.822	-57.3
9.823	-60.7
9.824	-64.5
9.825	-68.4
9.826	-72.3
9.827	-75.8
9.828	-78.6
9.829	-80.5
9.83	-81.4
9.831	-81.3
9.832	-80.1
9.833	-78.1
9.834	-75.4
9.835	-72.4
9.836	-69.3
9.837	-66.6
9.838	-64.4
9.839	-63
9.84	-62.8
9.841	-63.7
9.842	-65.7
9.843	-68.8
9.844	-72.6
9.845	-76.9
9.846	-81.3
9.847	-85.4
9.848	-88.8
9.849	-91.1
9.85	-92.1
9.851	-91.5
9.852	-89.3
9.853	-85.6
9.854	-80.6
9.855	-74.6
9.856	-68.1
9.857	-61.5
9.858	-55.4
9.859	-50.4
9.86	-47
9.861	-45.5
9.862	-46.3
9.863	-49.3
9.864	-54.9
9.865	-62.7
9.866	-72.5
9.867	-83.8
9.868	-95.8
9.869	-108.2
9.87	-120.4
9.871	-131.7
9.872	-141.5
9.873	-148.5
9.874	-152.9
9.875	-154.4
9.876	-152.7
9.877	-147.4
9.878	-137.8
9.879	-124.4
9.88	-107.4
9.881	-86.8
9.882	-62.5
9.883	-33.8
9.884	-1.7
9.885	34
9.886	73.1
9.887	115.6
9.888	161.6
9.889	210.4
9.89	261.6
9.891	314.9
9.892	369.7
9.893	424.8
9.894	479
9.895	531.7
9.896	581.7
9.897	627.7
9.898	667.9
9.899	700.9
9.9	726.2
9.901	743.2
9.902	750.8
9.903	748.1
9.904	734.9
9.905	712
9.906	680.2
9.907	640.2
9.908	592.6
9.909	538.9
9.91	481.1
9.911	420.8
9.912	359.7
9.913	299.1
9.914	240.7
9.915	186
9.916	136
9.917	91.5
9.918	52.9
9.919	21.1
9.92	-4.4
9.921	-24
9.922	-38.1
9.923	-47.3
9.924	-51.7
9.925	-52.8
9.926	-51.5
9.927	-48.5
9.928	-44.6
9.929	-39.6
9.93	-34.7
9.931	-30.4
9.932	-26.8
9.933	-24.2
9.934	-22
9.935	-20.5
9.936	-19.9
9.937	-19.8
9.938	-20.3
9.939	-20.7
9.94	-21.2
9.941	-21.8
9.942	-22.3
9.943	-22.8
9.944	-23.1
9.945	-23.4
9.946	-23.7
9.947	-24
9.948	-24.4
9.949	-25.1
9.95	-26.1
9.951	-27.3
9.952	-28.8
9.953	-30.5
9.954	-32.5
9.955	-34.8
9.956	-37.2
9.957	-39.7
9.958	-42.1
9.959	-44.5
9.96	-46.7
9.961	-48.6
9.962	-50.2
9.963	-51.5
9.964	-52.2
9.965	-52.4
9.966	-52.2
9.967	-51.4
9.968	-50
9.969	-48.1
9.97	-45.7
9.971	-42.9
9.972	-39.6
9.973	-36.1
9.974	-32.3
9.975	-28.4
9.976	-24.6
9.977	-20.8
9.978	-17.2
9.979	-14
9.98	-11.3
9.981	-9.1
9.982	-7.5
9.983	-6.5
9.984	-6.3
9.985	-6.7
9.986	-7.8
9.987	-9.4
9.988	-11.5
9.989	-13.9
9.99	-16.5
9.991	-19.1
9.992	-21.6
9.993	-23.7
9.994	-25.3
9.995	-26.2
9.996	-26.4
9.997	-25.6
9.998	-23.9
9.999	-21.2
10	-17.7
10.001	-13.2
10.002	-8.1
10.003	-2.4
10.004	3.6
10.005	9.6
10.006	15.4
10.007	20.7
10.008	25.2
10.009	28.8
10.01	31.1
10.011	32.2
10.012	31.8
10.013	30.1
10.014	26.9
10.015	22.6
10.016	17.3
10.017	11.3
10.018	4.8
10.019	-1.6
10.02	-7.8
10.021	-13.4
10.022	-18.1
10.023	-21.6
10.024	-23.7
10.025	-24.5
10.026	-23.9
10.027	-22
10.028	-18.9
10.029	-14.8
10.03	-10.2
10.031	-5.2
10.032	-0.2
10.033	4.5
10.034	8.7
10.035	12.2
10.036	14.9
10.037	16.6
10.038	17.6
10.039	17.9
10.04	17.6
10.041	17.1
10.042	16.6
10.043	16.4
10.044	16.6
10.045	17.6
10.046	19.5
10.047	22.4
10.048	26.1
10.049	30.7
10.05	35.9
10.051	41.4
10.052	47.1
10.053	52.6
10.054	57.5
10.055	61.6
10.056	64.7
10.057	66.6
10.058	67.4
10.059	66.8
10.06	65.2
10.061	62.6
10.062	59.4
10.063	56
10.064	52.6
10.065	49.5
10.066	47.1
10.067	45.7
10.068	45.6
10.069	46.6
10.07	48.9
10.071	52.5
10.072	57.1
10.073	62.6
10.074	68.6
10.075	74.9
10.076	81.2
10.077	87.2
10.078	92.7
10.079	97.5
10.08	101.3
10.081	104.3
10.082	106.5
10.083	107.9
10.084	108.7
10.085	109.1
10.086	109.2
10.087	109.3
10.088	109.7
10.089	110.3
10.09	111.3
10.091	112.8
10.092	114.8
10.093	117.4
10.094	120.2
10.095	123.4
10.096	126.7
10.097	130
10.098	133.3
10.099	136.4
10.1	139.3
10.101	141.9
10.102	144.4
10.103	146.7
10.104	148.8
10.105	150.9
10.106	153.1
10.107	155.5
10.108	158.1
10.109	160.9
10.11	164
10.111	167.2
10.112	170.6
10.113	174
10.114	177.3
10.115	180.5
10.116	183.3
10.117	185.6
10.118	187.5
10.119	188.8
10.12	189.6
10.121	189.8
10.122	189.6
10.123	189.1
10.124	188.4
10.125	187.5
10.126	186.8
10.127	186.2
10.128	185.9
10.129	185.8
10.13	186.1
10.131	186.6
10.132	187.4
10.133	188.2
10.134	188.9
10.135	189.5
10.136	189.8
10.137	189.7
10.138	188.9
10.139	187.6
10.14	185.7
10.141	183.3
10.142	180.3
10.143	176.9
10.144	173.2
10.145	169.4
10.146	165.7
10.147	162
10.148	158.3
10.149	154.9
10.15	151.8
10.151	148.7
10.152	145.7
10.153	142.5
10.154	139.2
10.155	135.5
10.156	131.3
10.157	126.5
10.158	121
10.159	114.9
10.16	108.2
10.161	101.1
10.162	93.6
10.163	86
10.164	78.6
10.165	71.6
10.166	65.3
10.167	59.8
10.168	55.2
10.169	51.6
10.17	49.1
10.171	47.4
10.172	46.4
10.173	45.8
10.174	45.3
10.175	44.7
10.176	43.5
10.177	41.5
10.178	38.2
10.179	33.6
10.18	27.7
10.181	20.3
10.182	11.7
10.183	1.9
10.184	-8.6
10.185	-19.4
10.186	-30.2
10.187	-40.5
10.188	-49.9
10.189	-57.9
10.19	-64.4
10.191	-69.1
10.192	-72
10.193	-73.1
10.194	-72.4
10.195	-70.4
10.196	-67.3
10.197	-63.6
10.198	-59.6
10.199	-55.8
10.2	-52.5
10.201	-50.1
10.202	-48.8
10.203	-48.9
10.204	-50.1
10.205	-52.6
10.206	-56.1
10.207	-60.5
10.208	-65.5
10.209	-70.7
10.21	-75.8
10.211	-80.6
10.212	-84.8
10.213	-88.4
10.214	-91.2
10.215	-93.1
10.216	-94.2
10.217	-94.8
10.218	-94.9
10.219	-94.7
10.22	-94.4
10.221	-94.3
10.222	-94.4
10.223	-95
10.224	-96
10.225	-97.4
10.226	-99.1
10.227	-101.1
10.228	-103.2
10.229	-105.2
10.23	-106.9
10.231	-108.2
10.232	-108.9
10.233	-109
10.234	-108.5
10.235	-107.4
10.236	-105.7
10.237	-103.7
10.238	-101.4
10.239	-99.2
10.24	-97
10.241	-95.3
10.242	-94
10.243	-93.2
10.244	-93
10.245	-93.4
10.246	-94.3
10.247	-95.5
10.248	-96.9
10.249	-98.3
10.25	-99.4
10.251	-100.2
10.252	-100.5
10.253	-100.1
10.254	-99.1
10.255	-97.4
10.256	-95
10.257	-92.2
10.258	-89.1
10.259	-85.8
10.26	-82.6
10.261	-79.7
10.262	-77.3
10.263	-75.4
10.264	-74.3
10.265	-74
10.266	-74.3
10.267	-75.4
10.268	-77
10.269	-79
10.27	-81.3
10.271	-83.7
10.272	-86
10.273	-88.1
10.274	-89.9
10.275	-91.3
10.276	-92.3
10.277	-92.8
10.278	-93
10.279	-92.9
10.28	-92.6
10.281	-92.2
10.282	-91.9
10.283	-91.7
10.284	-91.7
10.285	-92
10.286	-92.5
10.287	-93.2
10.288	-94.2
10.289	-95.2
10.29	-96.4
10.291	-97.4
10.292	-98.4
10.293	-99.2
10.294	-99.8
10.295	-100.1
10.296	-100.2
10.297	-100
10.298	-99.5
10.299	-98.9
10.3	-98.1
10.301	-97.2
10.302	-96.3
10.303	-95.4
10.304	-94.4
10.305	-93.4
10.306	-92.4
10.307	-91.3
10.308	-90.1
10.309	-88.8
10.31	-87.5
10.311	-86
10.312	-84.4
10.313	-82.7
10.314	-81.1
10.315	-79.5
10.316	-78
10.317	-76.7
10.318	-75.7
10.319	-75.1
10.32	-74.8
10.321	-74.9
10.322	-75.4
10.323	-76.1
10.324	-77.1
10.325	-78.2
10.326	-79.3
10.327	-80.2
10.328	-80.7
10.329	-80.9
10.33	-80.5
10.331	-79.7
10.332	-78.2
10.333	-76.3
10.334	-73.9
10.335	-71.3
10.336	-68.5
10.337	-65.8
10.338	-63.3
10.339	-61.2
10.34	-59.7
10.341	-58.8
10.342	-58.5
10.343	-58.9
10.344	-60
10.345	-61.5
10.346	-63.3
10.347	-65.3
10.348	-67.3
10.349	-69
10.35	-70.3
10.351	-71.2
10.352	-71.4
10.353	-71
10.354	-70
10.355	-68.5
10.356	-66.7
10.357	-64.7
10.358	-62.7
10.359	-61
10.36	-59.7
10.361	-58.9
10.362	-58.9
10.363	-59.5
10.364	-60.8
10.365	-62.7
10.366	-65
10.367	-67.7
10.368	-70.4
10.369	-72.9
10.37	-75.1
10.371	-76.8
10.372	-77.7
10.373	-78
10.374	-77.4
10.375	-76.2
10.376	-74.4
10.377	-72.2
10.378	-69.7
10.379	-67.3
10.38	-65.1
10.381	-63.3
10.382	-62.1
10.383	-61.6
10.384	-61.8
10.385	-62.7
10.386	-64.2
10.387	-66.2
10.388	-68.5
10.389	-70.8
10.39	-73
10.391	-74.9
10.392	-76.3
10.393	-77
10.394	-77.2
10.395	-76.7
10.396	-75.7
10.397	-74.3
10.398	-72.6
10.399	-71
10.4	-69.5
10.401	-68.4
10.402	-67.8
10.403	-67.7
10.404	-68.3
10.405	-69.5
10.406	-71
10.407	-72.9
10.408	-74.8
10.409	-76.5
10.41	-77.8
10.411	-78.3
10.412	-78
10.413	-76.8
10.414	-74.5
10.415	-71.3
10.416	-67.2
10.417	-62.6
10.418	-57.7
10.419	-52.9
10.42	-48.5
10.421	-44.9
10.422	-42.3
10.423	-41
10.424	-41.1
10.425	-42.7
10.426	-45.8
10.427	-50
10.428	-55.3
10.429	-61.1
10.43	-67.2
10.431	-73.1
