8.405579999999999927e+02	1.017920905724099953e-03
8.412939999999999827e+02	1.100095221772699966e-03
8.420240000000000009e+02	1.091049285605499939e-03
8.427169999999999845e+02	1.015766058117100086e-03
8.433870000000000573e+02	1.085725496523000074e-03
8.440500000000000682e+02	1.065439311787399991e-03
8.447459999999999809e+02	1.059059170074699982e-03
8.454479999999999791e+02	1.081451075151500024e-03
8.461620000000000346e+02	9.229155257343999797e-04
8.468379999999999654e+02	7.901148637755999469e-04
8.475199999999999818e+02	5.526714376172999496e-04
8.481789999999999736e+02	5.714483559130999982e-04
8.488540000000000418e+02	7.556804339401000008e-04
8.495489999999999782e+02	8.581373258493000438e-04
8.502380000000000564e+02	9.585410007275000201e-04
8.509220000000000255e+02	9.342787670902000371e-04
8.515900000000000318e+02	9.095735149457999770e-04
8.522400000000000091e+02	8.003018447197000115e-04
8.528690000000000282e+02	6.880444125271999688e-04
8.534800000000000182e+02	5.503185093401999524e-04
8.540760000000000218e+02	6.087745423427999786e-04
8.546829999999999927e+02	7.286377367563000350e-04
8.552710000000000719e+02	7.569771842098999785e-04
8.558580000000000609e+02	8.466871222481000365e-04
8.564600000000000364e+02	8.221416501328000000e-04
8.571009999999999991e+02	8.811774896456999861e-04
8.577939999999999827e+02	9.631077409721000224e-04
8.585349999999999682e+02	9.205349488182999491e-04
8.592950000000000728e+02	9.712777100503000149e-04
8.600489999999999782e+02	9.596169111318000487e-04
8.607939999999999827e+02	9.571291157043999766e-04
8.615289999999999964e+02	9.620654745957999548e-04
8.622520000000000664e+02	1.031038933433499945e-03
8.629379999999999882e+02	9.717349312268000212e-04
8.636330000000000382e+02	9.784671710804000722e-04
8.643390000000000555e+02	9.993308922275000953e-04
8.650500000000000682e+02	9.910962544381000505e-04
8.657799999999999727e+02	9.743226692080000093e-04
8.665430000000000064e+02	8.895812206900999492e-04
8.674160000000000537e+02	7.017621537669999814e-04
8.682160000000000082e+02	8.108119363896000142e-04
8.690560000000000400e+02	7.966130506247000136e-04
8.698809999999999718e+02	8.327221730723000223e-04
8.706990000000000691e+02	7.881487836128999542e-04
8.714730000000000700e+02	9.147733799181000363e-04
8.721770000000000209e+02	1.032320898957500002e-03
8.728440000000000509e+02	9.897979907690999512e-04
8.734950000000000045e+02	1.007983577437699925e-03
8.741589999999999918e+02	9.988148231059000570e-04
8.748210000000000264e+02	1.077451393939500048e-03
8.754759999999999991e+02	1.063176197931099990e-03
8.761649999999999636e+02	1.089407247491100015e-03
8.769099999999999682e+02	1.068048295564900073e-03
8.777050000000000409e+02	1.053270767442800095e-03
8.785460000000000491e+02	1.065409043803800014e-03
8.793550000000000182e+02	1.021104864776100013e-03
8.801770000000000209e+02	9.385709417983000534e-04
8.809919999999999618e+02	1.010655192658299964e-03
8.817880000000000109e+02	1.013508881442200032e-03
8.825750000000000455e+02	1.000692951492899952e-03
8.833509999999999991e+02	1.015161629766200011e-03
8.841159999999999854e+02	9.887100895865999235e-04
8.848630000000000564e+02	1.038587535731400101e-03
8.855589999999999691e+02	9.889159118755999189e-04
8.862799999999999727e+02	9.318605298176000154e-04
8.869940000000000282e+02	1.042441697791199893e-03
8.877240000000000464e+02	1.047574216499899940e-03
8.884740000000000464e+02	1.052159583195999950e-03
8.892200000000000273e+02	1.074043684639000009e-03
8.899590000000000600e+02	9.724374976939999856e-04
8.906589999999999918e+02	9.695332846604000311e-04
8.913920000000000528e+02	9.940254967659000601e-04
8.921230000000000473e+02	1.019384479150099937e-03
8.928630000000000564e+02	1.016674446873300046e-03
8.936250000000000000e+02	1.055700238793999893e-03
8.944080000000000155e+02	1.080735120922299937e-03
8.952100000000000364e+02	1.016036025248400051e-03
8.959719999999999800e+02	9.235566831193000236e-04
8.967280000000000655e+02	9.880175348371000605e-04
8.974680000000000746e+02	1.103154500014999961e-03
8.981649999999999636e+02	1.092588528990700008e-03
8.988480000000000700e+02	1.080692280083799970e-03
8.995190000000000055e+02	1.061780960299000057e-03
9.002190000000000509e+02	9.781717089936000590e-04
9.009400000000000546e+02	1.031143357977199956e-03
9.017250000000000227e+02	1.067079370841300017e-03
9.025779999999999745e+02	1.044040545821099892e-03
9.034180000000000064e+02	1.055866130627600022e-03
9.041960000000000264e+02	9.909378131851000974e-04
9.049360000000000355e+02	1.023400458507199920e-03
9.056599999999999682e+02	9.747632429935000143e-04
9.063630000000000564e+02	1.059524714946699989e-03
9.070819999999999936e+02	1.045410870574399985e-03
9.077939999999999827e+02	1.041324925608900012e-03
9.084790000000000418e+02	1.027246005833099950e-03
9.091990000000000691e+02	9.880666621028999681e-04
9.099320000000000164e+02	1.038264017552100078e-03
9.106960000000000264e+02	1.031858846545199906e-03
9.114980000000000473e+02	1.046259887516500084e-03
9.123300000000000409e+02	1.029818318784200045e-03
9.131290000000000191e+02	9.581221383995999936e-04
9.139110000000000582e+02	9.455349063499999792e-04
9.146760000000000446e+02	1.002155360765700099e-03
9.154379999999999882e+02	1.062594819813899964e-03
9.161820000000000164e+02	1.029916456900499934e-03
9.169010000000000673e+02	1.001889468170700072e-03
9.176370000000000573e+02	9.635548922232999459e-04
9.183780000000000427e+02	9.956539142876000455e-04
9.191349999999999909e+02	1.088121207430899984e-03
9.199070000000000391e+02	1.087593962438400006e-03
9.206779999999999973e+02	1.050203922204599998e-03
9.214239999999999782e+02	9.302903199568000533e-04
9.221750000000000682e+02	9.693445754237000299e-04
9.229080000000000155e+02	1.045071869157200052e-03
9.236639999999999873e+02	1.056835521012499963e-03
9.244060000000000628e+02	1.085345866158600068e-03
9.251080000000000609e+02	1.044043805450199950e-03
9.258279999999999745e+02	9.590906556695000381e-04
9.265380000000000109e+02	1.019007060676799898e-03
9.272470000000000709e+02	1.054577762261000098e-03
9.279529999999999745e+02	1.062204479239799940e-03
9.286670000000000300e+02	1.011492335237499990e-03
9.293670000000000755e+02	1.074607833288600007e-03
9.300550000000000637e+02	1.049429527483800072e-03
9.307440000000000282e+02	1.018920447677299944e-03
9.314279999999999973e+02	1.001169905066399968e-03
9.321280000000000427e+02	1.024943892844000070e-03
9.328279999999999745e+02	1.127919531427299966e-03
9.335240000000000009e+02	1.069160993210900015e-03
9.342019999999999982e+02	1.033501117490199898e-03
9.348559999999999945e+02	1.022584387101200046e-03
9.354980000000000473e+02	9.560002945363000075e-04
9.361530000000000200e+02	9.609459666535000253e-04
9.367899999999999636e+02	9.287905995734000190e-04
9.374429999999999836e+02	9.793367935344000040e-04
9.380919999999999845e+02	1.029822858981699904e-03
9.387670000000000528e+02	1.057555200532000030e-03
9.394680000000000746e+02	1.060447655618099909e-03
9.401910000000000309e+02	1.059918082319200039e-03
9.409120000000000346e+02	1.069609541445900062e-03
9.416349999999999909e+02	1.015151850879099978e-03
9.423650000000000091e+02	1.008910592645400001e-03
9.430980000000000700e+02	9.804902365431000886e-04
9.438300000000000409e+02	1.047287136316300089e-03
9.445600000000000591e+02	1.054377644322799980e-03
9.452920000000000300e+02	1.081487629562600085e-03
9.460149999999999864e+02	1.079253153875399905e-03
9.467430000000000518e+02	1.057601533830099944e-03
9.474800000000000182e+02	1.060809125192400081e-03
9.482309999999999945e+02	1.074203406460499943e-03
9.489990000000000236e+02	1.084373798221300060e-03
9.497710000000000719e+02	1.082267612218799999e-03
9.505289999999999964e+02	1.083379844203500057e-03
9.512690000000000055e+02	1.016493304632600002e-03
9.520140000000000100e+02	1.069133402779700107e-03
9.527509999999999764e+02	1.063988544046800102e-03
9.534830000000000609e+02	1.095838146284200051e-03
9.542169999999999845e+02	1.059288159012699952e-03
9.549600000000000364e+02	1.101363915950000043e-03
9.556910000000000309e+02	1.017482951283400034e-03
9.564230000000000018e+02	1.024897093884600055e-03
9.571710000000000491e+02	1.075480948202300066e-03
9.579250000000000682e+02	1.052369130775299925e-03
9.586950000000000500e+02	1.083807786926600054e-03
9.594730000000000700e+02	1.048996928147900073e-03
9.602470000000000709e+02	1.030812971293900001e-03
9.609790000000000418e+02	1.014062087051499942e-03
9.617100000000000364e+02	1.067255041561999962e-03
9.624080000000000155e+02	1.079377252608499944e-03
9.631130000000000564e+02	1.088183955289400047e-03
9.638220000000000027e+02	1.081382390111600015e-03
9.645260000000000673e+02	1.090856967493799992e-03
9.652409999999999854e+02	1.043032156303500034e-03
9.659800000000000182e+02	1.090599573217300054e-03
9.667319999999999709e+02	1.089991535991399925e-03
9.675080000000000382e+02	1.091971062123700022e-03
9.682820000000000391e+02	1.052526873536399924e-03
9.690450000000000728e+02	1.033880515024000052e-03
9.698000000000000682e+02	1.023984281346199945e-03
9.705389999999999873e+02	1.027013990096699953e-03
9.712599999999999909e+02	9.577795863150999518e-04
9.719519999999999982e+02	7.914342568255000338e-04
9.725980000000000700e+02	6.786394515074000225e-04
9.732450000000000045e+02	7.249221089295999551e-04
9.739039999999999964e+02	7.646742742508000389e-04
9.745439999999999827e+02	7.336085545830000340e-04
9.752100000000000364e+02	7.086383993736999507e-04
9.758960000000000719e+02	5.620175506919000089e-04
9.766449999999999818e+02	7.270959904416999858e-04
9.774289999999999736e+02	7.099625072441999481e-04
9.782169999999999845e+02	8.142114384098999777e-04
9.790190000000000055e+02	8.930949843488000459e-04
9.797980000000000018e+02	9.273655596189000301e-04
9.805470000000000255e+02	9.375658701172999475e-04
9.812680000000000291e+02	9.989044629037000748e-04
9.819730000000000700e+02	9.335850481875000110e-04
9.826380000000000337e+02	9.275682969017999459e-04
9.833110000000000355e+02	9.318420779890999872e-04
9.839809999999999945e+02	9.696130873635000350e-04
9.846639999999999873e+02	1.010669744573499925e-03
9.853799999999999955e+02	9.932280518114000849e-04
9.861460000000000719e+02	1.012032269500200100e-03
9.869470000000000027e+02	9.994994616135000759e-04
9.877459999999999809e+02	9.735056082717999512e-04
9.885410000000000537e+02	9.569480316713000227e-04
9.893170000000000073e+02	9.627528488635999498e-04
9.900450000000000728e+02	9.525839705019999550e-04
9.908039999999999736e+02	9.674658649600999987e-04
9.915320000000000391e+02	9.887621272354999314e-04
9.922549999999999955e+02	1.024066470563400003e-03
9.929710000000000036e+02	1.004978781565999974e-03
9.936800000000000637e+02	9.947433136402999022e-04
9.943770000000000664e+02	9.704056428744999756e-04
9.951159999999999854e+02	1.004340243525800053e-03
9.958500000000000227e+02	1.008968800306300024e-03
9.965860000000000127e+02	9.938587900251000511e-04
9.973220000000000027e+02	9.925588965415000492e-04
9.980240000000000009e+02	1.008912222459899940e-03
9.987459999999999809e+02	9.452895028515999679e-04
9.994610000000000127e+02	1.043586875311999958e-03
1.000183999999999969e+03	1.059087924659199908e-03
1.000909999999999968e+03	9.616408497094999612e-04
1.001644000000000005e+03	1.007560058496800078e-03
1.002369000000000028e+03	1.044845208525599974e-03
1.003090000000000032e+03	9.684782708062999578e-04
1.003817000000000007e+03	9.876089170575000960e-04
1.004532000000000039e+03	1.021491829305800052e-03
1.005252000000000066e+03	1.021389267407300013e-03
1.005968000000000075e+03	1.042303745634800063e-03
1.006677999999999997e+03	9.683560347183999993e-04
1.007408999999999992e+03	9.464690228924000194e-04
1.008159999999999968e+03	1.050158287398500001e-03
1.008923999999999978e+03	1.009054481983100030e-03
1.009704000000000065e+03	1.027636928483800002e-03
1.010478000000000065e+03	1.039175549521999991e-03
1.011231999999999971e+03	8.814317989162999889e-04
1.012003000000000043e+03	9.727998403831999812e-04
1.012750000000000000e+03	9.951156098395000545e-04
1.013495000000000005e+03	1.030234037898400011e-03
1.014239000000000033e+03	1.034186105243800093e-03
1.014990999999999985e+03	1.028317841701200004e-03
1.015725999999999999e+03	8.616441627964000101e-04
1.016447000000000003e+03	9.329243330284000104e-04
1.017157000000000039e+03	1.075577107258100058e-03
1.017846000000000004e+03	1.099425950087599968e-03
1.018557000000000016e+03	1.068062963895499923e-03
1.019226999999999975e+03	9.365431033074000369e-04
1.019913999999999987e+03	1.004044665023599934e-03
1.020601999999999975e+03	1.028131810016899962e-03
1.021307000000000016e+03	1.045428798533899967e-03
1.022024000000000001e+03	1.019518822431499929e-03
1.022742000000000075e+03	9.791597258298999351e-04
1.023449000000000069e+03	9.530361276118999841e-04
1.024146999999999935e+03	1.008239691145700100e-03
1.024838999999999942e+03	1.024842262268000053e-03
1.025536000000000058e+03	1.032855710946000045e-03
1.026223999999999933e+03	1.023679738864300033e-03
1.026913000000000011e+03	1.009140163659999999e-03
1.027599999999999909e+03	9.643164230510000486e-04
1.028298000000000002e+03	1.005345489829699958e-03
1.029004000000000133e+03	1.066472730599299975e-03
1.029726000000000113e+03	1.066226977854899897e-03
1.030442000000000007e+03	9.948529768734999060e-04
1.031163000000000011e+03	9.800749830901000440e-04
1.031889000000000124e+03	1.018520793877499952e-03
1.032622000000000071e+03	1.059807487763400049e-03
1.033377999999999929e+03	9.899748256429999511e-04
1.034134999999999991e+03	1.072747167199799992e-03
1.034881000000000085e+03	9.704902186057999796e-04
1.035625999999999976e+03	1.022393582388699896e-03
1.036346999999999980e+03	9.998844470827999639e-04
1.037050999999999931e+03	1.041927840560600074e-03
1.037754000000000133e+03	1.016212976537599977e-03
1.038443999999999960e+03	1.040838076733000038e-03
1.039136999999999944e+03	1.007467857562000099e-03
1.039836000000000013e+03	1.004960387945099927e-03
1.040549999999999955e+03	1.025089644826900070e-03
1.041293000000000120e+03	1.032578293234099904e-03
1.042069999999999936e+03	1.047262805514000096e-03
1.042836000000000013e+03	1.034689252264800073e-03
1.043612000000000080e+03	9.896953124552000224e-04
1.044383000000000038e+03	9.777755476534000147e-04
1.045153999999999996e+03	1.059782225638600034e-03
1.045918000000000120e+03	1.032336265780000022e-03
1.046684999999999945e+03	1.019841758534300105e-03
1.047433999999999969e+03	1.025033416226499945e-03
1.048159000000000106e+03	9.926288621500000027e-04
1.048911000000000058e+03	9.788064053282000739e-04
1.049661000000000058e+03	1.005868311040099966e-03
1.050413000000000011e+03	1.029497594572600016e-03
1.051168000000000120e+03	1.043236930854599901e-03
1.051932000000000016e+03	1.046398770995399935e-03
1.052677000000000135e+03	1.021863077767100076e-03
1.053420000000000073e+03	9.810714982449999719e-04
1.054165999999999940e+03	9.807934984564000563e-04
1.054942000000000007e+03	1.003131503239200082e-03
1.055732999999999947e+03	1.058976980857499924e-03
1.056502999999999929e+03	1.033794484101200088e-03
1.057240999999999985e+03	1.021233620122000054e-03
1.057982999999999947e+03	9.303349652326999746e-04
1.058711999999999989e+03	1.023450167849600072e-03
1.059452999999999975e+03	1.013136119581699995e-03
1.060199000000000069e+03	1.011403161101000073e-03
1.060966000000000122e+03	9.956880239769001079e-04
1.061727000000000089e+03	9.770332835614000365e-04
1.062487000000000080e+03	9.387565078212999937e-04
1.063252999999999929e+03	1.016661757603200093e-03
1.064000000000000000e+03	1.000180607661599894e-03
1.064752999999999929e+03	1.062993309460499901e-03
1.065474999999999909e+03	1.056600711308399972e-03
1.066200000000000045e+03	9.961859323084000951e-04
1.066934999999999945e+03	1.010296167805700045e-03
1.067679000000000087e+03	1.026891754008800103e-03
1.068418000000000120e+03	1.054529100656500075e-03
1.069161000000000058e+03	1.079253503121400080e-03
1.069894999999999982e+03	9.802980348467000681e-04
1.070639000000000124e+03	9.632092551328000048e-04
1.071394999999999982e+03	9.847983019426000996e-04
1.072161000000000058e+03	1.015829853713500061e-03
1.072916999999999916e+03	1.038801507092999973e-03
1.073671000000000049e+03	1.057378947734800021e-03
1.074403000000000020e+03	1.024794415570800090e-03
1.075135999999999967e+03	8.874480845405999891e-04
1.075862000000000080e+03	9.996012086048000189e-04
1.076569999999999936e+03	1.048887614160700027e-03
1.077279999999999973e+03	9.973816340788999382e-04
1.077987000000000080e+03	1.092553604394200066e-03
1.078702999999999975e+03	1.071490580216000058e-03
1.079422000000000025e+03	1.131420722231199927e-03
1.080173999999999978e+03	1.090190839022399947e-03
1.080961999999999989e+03	1.117866951972199983e-03
1.081778999999999996e+03	1.021382515318600007e-03
1.082579999999999927e+03	9.378766408189999999e-04
1.083377999999999929e+03	8.375140023416999995e-04
1.084183999999999969e+03	9.705612319520999899e-04
1.084973999999999933e+03	9.376463713123999767e-04
1.085758000000000038e+03	1.003667130134999969e-03
1.086519000000000005e+03	1.015587244182799935e-03
1.087260999999999967e+03	1.027754158712900108e-03
1.088000000000000000e+03	9.790279436856000848e-04
1.088740000000000009e+03	1.049587270244900072e-03
1.089486000000000104e+03	1.077906345017199926e-03
1.090256000000000085e+03	1.029314240440700043e-03
1.091041999999999916e+03	1.077973865903900097e-03
1.091783000000000129e+03	8.108260226434999820e-04
1.092480999999999995e+03	7.630191394127000060e-04
1.093134000000000015e+03	4.689331108237999976e-04
1.093784000000000106e+03	4.595784412230999772e-04
1.094430000000000064e+03	4.318101564421999885e-04
1.095096999999999980e+03	6.035385304130000145e-04
1.095793000000000120e+03	7.303042802958999678e-04
1.096490999999999985e+03	7.828331436029999655e-04
1.097177000000000135e+03	8.966582245193000086e-04
1.097839999999999918e+03	9.201219654641999961e-04
1.098500000000000000e+03	8.623531903139999670e-04
1.099134000000000015e+03	8.152947993949000377e-04
1.099751999999999953e+03	8.245574426836999862e-04
1.100371000000000095e+03	8.436968200839999564e-04
1.101009000000000015e+03	8.816805202512999684e-04
1.101684999999999945e+03	9.332536719739000170e-04
1.102403000000000020e+03	9.670148137956000077e-04
1.103166999999999916e+03	9.225814137606999730e-04
1.103987000000000080e+03	9.133082348852999488e-04
1.104803000000000111e+03	8.956348756327999622e-04
1.105613000000000056e+03	8.705945801921000180e-04
1.106432000000000016e+03	9.192829602397000355e-04
1.107217000000000098e+03	9.057177230715000296e-04
1.107976000000000113e+03	9.944398188962999020e-04
1.108652000000000044e+03	8.697948651388000231e-04
1.109303000000000111e+03	8.159307762980000335e-04
1.109947000000000116e+03	1.022850745357499957e-03
1.110612000000000080e+03	1.025902456603900066e-03
1.111279999999999973e+03	9.030390647238999710e-04
1.111951999999999998e+03	1.021919073536899916e-03
1.112627999999999929e+03	9.319327655248000252e-04
1.113312000000000126e+03	1.100906636565900055e-03
1.113996000000000095e+03	1.074366737157099894e-03
1.114645999999999958e+03	1.006553298793699943e-03
1.115313000000000102e+03	1.089264522306600041e-03
1.115962999999999965e+03	9.529414819553000057e-04
1.116615000000000009e+03	8.800924406386000055e-04
1.117265000000000100e+03	9.801721898837999474e-04
1.117914999999999964e+03	9.101266623474000509e-04
1.118564000000000078e+03	9.262414532713000078e-04
1.119218000000000075e+03	8.771127322687999458e-04
1.119876999999999953e+03	9.861335856839999279e-04
1.120540999999999940e+03	1.059502712450900068e-03
1.121204999999999927e+03	1.067757257260299993e-03
1.121875999999999976e+03	1.081730821169900022e-03
1.122541999999999916e+03	1.074568368494500025e-03
1.123216000000000122e+03	9.467820636928000197e-04
1.123891000000000076e+03	8.985869935713000417e-04
1.124577999999999975e+03	8.604342001490000030e-04
1.125286000000000058e+03	8.791738073340999837e-04
1.126026000000000067e+03	9.468258940613999896e-04
1.126760999999999967e+03	9.432226070202000181e-04
1.127487000000000080e+03	9.337305091320999978e-04
1.128184999999999945e+03	9.523695916868000350e-04
1.128865000000000009e+03	8.579646237194000352e-04
1.129521999999999935e+03	7.829250534996000030e-04
1.130187000000000126e+03	8.689751266501000420e-04
1.130855999999999995e+03	8.403653628191999582e-04
1.131548999999999978e+03	8.833148749544999720e-04
1.132283000000000129e+03	9.389959741382999502e-04
1.133014000000000124e+03	1.010413165204200082e-03
1.133737000000000080e+03	9.412717772647000115e-04
1.134469000000000051e+03	8.843436371534999906e-04
1.135204999999999927e+03	8.722259663044999766e-04
1.135932999999999993e+03	9.715083870104999778e-04
1.136658000000000129e+03	9.732405305840000206e-04
1.137376999999999953e+03	8.442929247394000310e-04
1.138091000000000122e+03	8.616018458268999815e-04
1.138823000000000093e+03	9.183969814330000076e-04
1.139552000000000135e+03	9.698358480818000454e-04
