8.397670000000000528e+02	9.806256275623999926e-04
8.406069999999999709e+02	9.960245806723000417e-04
8.414300000000000637e+02	1.048058271407999956e-03
8.422490000000000236e+02	9.836560348047999544e-04
8.430450000000000728e+02	1.025343313813199993e-03
8.438190000000000737e+02	9.881431469692999320e-04
8.446050000000000182e+02	1.003517070785099998e-03
8.453930000000000291e+02	1.001565367914700059e-03
8.462129999999999654e+02	1.018884009681599988e-03
8.470550000000000637e+02	1.015916583128199978e-03
8.478830000000000382e+02	1.062580617144699962e-03
8.486990000000000691e+02	1.052551437169299987e-03
8.495090000000000146e+02	1.012114342302000052e-03
8.503039999999999736e+02	1.004628255032000107e-03
8.511009999999999991e+02	1.028489554300899937e-03
8.518849999999999909e+02	1.009009080007600102e-03
8.526420000000000528e+02	1.010332256555500005e-03
8.534160000000000537e+02	1.062872353941199995e-03
8.541779999999999973e+02	1.058746362105000014e-03
8.549600000000000364e+02	1.035448396578399904e-03
8.557599999999999909e+02	1.067601726390399923e-03
8.565629999999999882e+02	1.051816856488500037e-03
8.573659999999999854e+02	1.034431974403500097e-03
8.581580000000000155e+02	1.035964349284700017e-03
8.589320000000000164e+02	1.013793982565399949e-03
8.596900000000000546e+02	9.949440136551000475e-04
8.604300000000000637e+02	1.063584466464799960e-03
8.611720000000000255e+02	1.053639454767099940e-03
8.619060000000000628e+02	1.068920013494700045e-03
8.626470000000000482e+02	1.034917426295499984e-03
8.633899999999999864e+02	1.020561903715100057e-03
8.641499999999999773e+02	1.046307850628999973e-03
8.649420000000000073e+02	1.048612874001199954e-03
8.657480000000000473e+02	1.050104969181100013e-03
8.665650000000000546e+02	1.024787896312699936e-03
8.673530000000000655e+02	1.052832347340800076e-03
8.681080000000000609e+02	9.834248339757000173e-04
8.688709999999999809e+02	1.009839470498200085e-03
8.696299999999999955e+02	1.053662970662100091e-03
8.703859999999999673e+02	1.015979680232699999e-03
8.711430000000000291e+02	1.037383801303800018e-03
8.718849999999999909e+02	1.015488989651199903e-03
8.726240000000000236e+02	9.706282289698000068e-04
8.733770000000000664e+02	1.052851323038299933e-03
8.741420000000000528e+02	1.032500411383800070e-03
8.749250000000000682e+02	1.049974816851300102e-03
8.757010000000000218e+02	1.045531360432499970e-03
8.764510000000000218e+02	9.607064421288000157e-04
8.772029999999999745e+02	1.004161778837399897e-03
8.779730000000000700e+02	1.053184620104699988e-03
8.787459999999999809e+02	1.023419899865899915e-03
8.795190000000000055e+02	9.970024693757000706e-04
8.802580000000000382e+02	9.541429462842000329e-04
8.809919999999999618e+02	8.335073362103999480e-04
8.817160000000000082e+02	9.065691265276999656e-04
8.824170000000000300e+02	1.082723028957799979e-03
8.831159999999999854e+02	1.092378050088800047e-03
8.837910000000000537e+02	1.073491061106299910e-03
8.844650000000000318e+02	1.105402014218200089e-03
8.851220000000000709e+02	1.089172204956399955e-03
8.857599999999999909e+02	1.063426258042400076e-03
8.864060000000000628e+02	1.086622476577700025e-03
8.870550000000000637e+02	1.089219469577000108e-03
8.877590000000000146e+02	1.086380216293000075e-03
8.885210000000000719e+02	1.078247092664199941e-03
8.892839999999999918e+02	1.046848832629599995e-03
8.900320000000000391e+02	1.045021344907500057e-03
8.907849999999999682e+02	1.047849655151299967e-03
8.915230000000000246e+02	1.068189623765599923e-03
8.922480000000000473e+02	1.054974272847099921e-03
8.929660000000000082e+02	1.000697608105799918e-03
8.936689999999999827e+02	1.040851697325699977e-03
8.943720000000000709e+02	1.060339855030100094e-03
8.950670000000000073e+02	1.111015910282700048e-03
8.957640000000000100e+02	9.623392834328000061e-04
8.964700000000000273e+02	1.052917796187099976e-03
8.972029999999999745e+02	1.082646427675999909e-03
8.979360000000000355e+02	1.080270274542200100e-03
8.987200000000000273e+02	1.075734733603799951e-03
8.995149999999999864e+02	1.098456210456700069e-03
9.003129999999999882e+02	1.052799751050700026e-03
9.011019999999999754e+02	1.014141598716299933e-03
9.018980000000000246e+02	1.065726741217000017e-03
9.026760000000000446e+02	1.076138345524599955e-03
9.034440000000000737e+02	1.052738050930200056e-03
9.041800000000000637e+02	1.071176724508399961e-03
9.048970000000000482e+02	1.067097880877499990e-03
9.055930000000000746e+02	1.072811428457500068e-03
9.063060000000000400e+02	1.046981778927099900e-03
9.070249999999999773e+02	1.065060030668899980e-03
9.077609999999999673e+02	1.062447903677799909e-03
9.085389999999999873e+02	1.061926712282000021e-03
9.093300000000000409e+02	1.061867689713799938e-03
9.100850000000000364e+02	1.078901113942200025e-03
9.108400000000000318e+02	1.048643258400200036e-03
9.115969999999999800e+02	1.075906562618899991e-03
9.123369999999999891e+02	1.068563899025299973e-03
9.130639999999999645e+02	1.069107791408899916e-03
9.137830000000000155e+02	1.047606463544000031e-03
9.144980000000000473e+02	1.063167816028000008e-03
9.152129999999999654e+02	1.093170722015200094e-03
9.159400000000000546e+02	1.086597796529500037e-03
9.166710000000000491e+02	1.068222569301699931e-03
9.173830000000000382e+02	1.042751013301299913e-03
9.180879999999999654e+02	8.471350301988000032e-04
9.187920000000000300e+02	1.056175678968400075e-03
9.194959999999999809e+02	1.067144447006199972e-03
9.202190000000000509e+02	1.097388449124899953e-03
9.209610000000000127e+02	9.891656227409000458e-04
9.217019999999999982e+02	7.857424207031000422e-04
9.224510000000000218e+02	1.006597187370000075e-03
9.232050000000000409e+02	1.027104095555800073e-03
9.239690000000000509e+02	1.029286999255399912e-03
9.247319999999999709e+02	1.073222374543499925e-03
9.254619999999999891e+02	1.031617517582999978e-03
9.261879999999999882e+02	1.082370756194000029e-03
9.269220000000000255e+02	1.037914189509999948e-03
9.276560000000000628e+02	1.113088335841800041e-03
9.283960000000000719e+02	1.085496973246299988e-03
9.291409999999999627e+02	1.087510026991299903e-03
9.298720000000000709e+02	1.076076296158100026e-03
9.305950000000000273e+02	1.003707293420999904e-03
9.313110000000000355e+02	1.090408652089499978e-03
9.320220000000000482e+02	1.078078756108800029e-03
9.327300000000000182e+02	1.111670513637299943e-03
9.334360000000000355e+02	1.115733175538400051e-03
9.341440000000000055e+02	1.077830325812100063e-03
9.348640000000000327e+02	1.093416125513599997e-03
9.356080000000000609e+02	1.080365618690799995e-03
9.363670000000000755e+02	1.091272570192799996e-03
9.371270000000000664e+02	1.064765150658699994e-03
9.378619999999999663e+02	1.008893945254300036e-03
9.385729999999999791e+02	1.042864634655399966e-03
9.392720000000000482e+02	1.101918169297200082e-03
9.399690000000000509e+02	1.070610713213599992e-03
9.406639999999999873e+02	1.066654687747300078e-03
9.413600000000000136e+02	1.066625933162799935e-03
9.420399999999999636e+02	9.408482001163000381e-04
9.427110000000000127e+02	1.068830257281600101e-03
9.433840000000000146e+02	1.059330534189900034e-03
9.440819999999999936e+02	1.015138812363100031e-03
9.448100000000000591e+02	1.080391230061599969e-03
9.455500000000000682e+02	1.092063728719900066e-03
9.462939999999999827e+02	1.088749384507500025e-03
9.470170000000000528e+02	1.052236417308400089e-03
9.477390000000000327e+02	1.118179643526600025e-03
9.484529999999999745e+02	1.071048085577700100e-03
9.491680000000000064e+02	1.089359750039800047e-03
9.498960000000000719e+02	1.102653099223900026e-03
9.506240000000000236e+02	1.094761886633900064e-03
9.513509999999999991e+02	1.097785891033699942e-03
9.520760000000000218e+02	1.102377544157200073e-03
9.528050000000000637e+02	1.076609594747400056e-03
9.535500000000000682e+02	1.115514314733400108e-03
9.542980000000000018e+02	1.090517616830700065e-03
9.550220000000000482e+02	1.086510019376800027e-03
9.557319999999999709e+02	1.111016375943999933e-03
9.564329999999999927e+02	1.059168949723199912e-03
9.571270000000000664e+02	1.077088760212000038e-03
9.578150000000000546e+02	1.072319224476799959e-03
9.585090000000000146e+02	1.057973131537399926e-03
9.591940000000000737e+02	1.052636653184800108e-03
9.598740000000000236e+02	1.017302391119300018e-03
9.605460000000000491e+02	1.078136032447200030e-03
9.612250000000000227e+02	1.097358646802600078e-03
9.619170000000000300e+02	1.081286231055800023e-03
9.626280000000000427e+02	1.089402823708900082e-03
9.633530000000000655e+02	1.082628732547099995e-03
9.640769999999999982e+02	1.095842802897100017e-03
9.648039999999999736e+02	1.111140474677000008e-03
9.655270000000000437e+02	1.053142128512199981e-03
9.662440000000000282e+02	1.105281058698800003e-03
9.669250000000000682e+02	1.091637415811399971e-03
9.675940000000000509e+02	1.064377254806399969e-03
9.682380000000000564e+02	1.106370356865199901e-03
9.688750000000000000e+02	1.143069821409800017e-03
9.694909999999999854e+02	1.121283159591199893e-03
9.701109999999999900e+02	1.069810474291400023e-03
9.707530000000000427e+02	1.094986917450999986e-03
9.714350000000000591e+02	1.088650315068599933e-03
9.721309999999999718e+02	1.130203716456799901e-03
9.728279999999999745e+02	1.072178129106699960e-03
9.735370000000000346e+02	1.102996524423299892e-03
9.742490000000000236e+02	1.086076837964300001e-03
9.749730000000000700e+02	1.108533586375399929e-03
9.756900000000000546e+02	1.082919770851700075e-03
9.764189999999999827e+02	1.111498917452899936e-03
9.771570000000000391e+02	1.089242403395400014e-03
9.778949999999999818e+02	1.056706416420599964e-03
9.786560000000000628e+02	1.089039258658800087e-03
9.794099999999999682e+02	1.067191129550300061e-03
9.801870000000000118e+02	1.115638529881800073e-03
9.809750000000000227e+02	1.092627760954199920e-03
9.817340000000000373e+02	1.075861160643400063e-03
9.824970000000000709e+02	1.097650034353099937e-03
9.832570000000000618e+02	1.100473105907400070e-03
9.840080000000000382e+02	1.098992303013800057e-03
9.847630000000000337e+02	1.102939364500299998e-03
9.855249999999999773e+02	1.097615691833200022e-03
9.862799999999999727e+02	1.086229924112500035e-03
9.870220000000000482e+02	1.034438726492200103e-03
9.877630000000000337e+02	1.089524012058900020e-03
9.885109999999999673e+02	1.106737996451500087e-03
9.892920000000000300e+02	1.117848674766700042e-03
9.901159999999999854e+02	1.097464817576099955e-03
9.909270000000000209e+02	1.115027582272800060e-03
9.917119999999999891e+02	1.024708268232600019e-03
9.924790000000000418e+02	1.086264033801800097e-03
9.932210000000000036e+02	9.370076004415000236e-04
9.939130000000000109e+02	8.955365628934999853e-04
9.945800000000000409e+02	9.045795886776999842e-04
9.952369999999999663e+02	6.353214848786000509e-04
9.959010000000000673e+02	5.486505106090999511e-04
9.965660000000000309e+02	7.133542094378999936e-04
9.972950000000000728e+02	6.992042181082000485e-04
9.980280000000000200e+02	8.844922413118000383e-04
9.987770000000000437e+02	9.646413964218999949e-04
9.995289999999999964e+02	1.020531170070100016e-03
1.000277000000000044e+03	1.029170467518199976e-03
1.001024000000000001e+03	1.029500504955599936e-03
1.001769000000000005e+03	1.063065486960100038e-03
1.002512000000000057e+03	1.056689652614300036e-03
1.003264000000000010e+03	1.079679583199300106e-03
1.004019999999999982e+03	1.077936729416200008e-03
1.004788999999999987e+03	1.063991454429899985e-03
1.005550000000000068e+03	1.065278192981999970e-03
1.006302999999999997e+03	1.012934837490300040e-03
1.007072000000000003e+03	9.671630105003000072e-04
1.007855999999999995e+03	9.787601884454000863e-04
1.008657000000000039e+03	1.017201575450600061e-03
1.009451000000000022e+03	1.028290134854599990e-03
1.010236999999999966e+03	1.026458456180899970e-03
1.011012000000000057e+03	1.008974388241700012e-03
1.011764999999999986e+03	9.895623661576999006e-04
1.012509999999999991e+03	9.587683016433999617e-04
1.013258000000000038e+03	9.969077073036999859e-04
1.014040000000000077e+03	9.558589081278999955e-04
1.014850999999999999e+03	1.037496142089299909e-03
1.015663999999999987e+03	1.023638178594400011e-03
1.016475000000000023e+03	1.062558847479499894e-03
1.017258000000000038e+03	1.008545514196099993e-03
1.018033000000000015e+03	1.074324478395199955e-03
1.018774000000000001e+03	9.173927246591999981e-04
1.019522000000000048e+03	9.912045206873999672e-04
1.020269000000000005e+03	1.018043491057999978e-03
1.021024999999999977e+03	1.054315594956200088e-03
1.021798999999999978e+03	1.074948697350899948e-03
1.022594000000000051e+03	1.035840017720999909e-03
1.023370999999999981e+03	9.844154119491000353e-04
1.024125000000000000e+03	9.881273144855999904e-04
1.024882000000000062e+03	1.057615038007499956e-03
1.025631000000000085e+03	1.087000942788999940e-03
1.026384000000000015e+03	1.100187306292299983e-03
1.027121000000000095e+03	1.055680215358700087e-03
1.027828999999999951e+03	1.000903896056100015e-03
1.028531999999999925e+03	1.022299518808699945e-03
1.029229000000000042e+03	1.079801353625900072e-03
1.029940000000000055e+03	1.080127432942300019e-03
1.030663000000000011e+03	1.066138152964399939e-03
1.031390000000000100e+03	1.044988166540799981e-03
1.032106999999999971e+03	9.899601573124001009e-04
1.032832000000000107e+03	1.047483994625499895e-03
1.033567999999999984e+03	1.069327001459900034e-03
1.034308999999999969e+03	1.094103441573600084e-03
1.035062000000000126e+03	1.065872842445899976e-03
1.035795000000000073e+03	9.968625381587999101e-04
1.036512999999999920e+03	1.024085911922099999e-03
1.037237000000000080e+03	1.064755138941100073e-03
1.037966000000000122e+03	1.074523665010900051e-03
1.038701999999999998e+03	1.101411413401300011e-03
1.039440000000000055e+03	1.035779947414899914e-03
1.040165999999999940e+03	1.046149875037299904e-03
1.040910000000000082e+03	1.035368535667599956e-03
1.041663000000000011e+03	1.084664138033900006e-03
1.042424999999999955e+03	1.086812582798300005e-03
1.043187000000000126e+03	1.021991483867099905e-03
1.043942999999999984e+03	1.002760021947299990e-03
1.044721999999999980e+03	1.053829211741599998e-03
1.045490999999999985e+03	1.077320659533099892e-03
1.046269000000000005e+03	1.125683891586899948e-03
1.047031999999999925e+03	1.081244903616600033e-03
1.047778000000000020e+03	1.056147622875800102e-03
1.048497000000000071e+03	1.059785368852299986e-03
1.049219000000000051e+03	1.063025323673999923e-03
1.049950000000000045e+03	1.065076794475300088e-03
1.050709000000000060e+03	1.065326854586599956e-03
1.051491999999999962e+03	1.066053053364099997e-03
1.052281999999999925e+03	1.062131719663699956e-03
1.053040999999999940e+03	1.011476502753700085e-03
1.053817000000000007e+03	9.839931735767999156e-04
1.054606999999999971e+03	1.068795681930999938e-03
1.055399000000000115e+03	1.047641737386499931e-03
1.056195999999999913e+03	1.080833259038600043e-03
1.056972999999999956e+03	1.059748814441199925e-03
1.057718000000000075e+03	1.037073438055800085e-03
1.058468000000000075e+03	1.086826086975600054e-03
1.059222999999999956e+03	1.075101899914399908e-03
1.059976000000000113e+03	1.095365732908199895e-03
1.060756000000000085e+03	1.075522624887500014e-03
1.061516000000000076e+03	1.026811427436700053e-03
1.062293000000000120e+03	9.767401497811000963e-04
1.063064000000000078e+03	1.056912937201499912e-03
1.063838999999999942e+03	1.056915498338600054e-03
1.064606999999999971e+03	1.110405777581000095e-03
1.065379000000000133e+03	9.533723350614000313e-04
1.066098999999999933e+03	9.001797297968999701e-04
1.066817999999999984e+03	1.002368866465899906e-03
1.067543000000000120e+03	1.089988858439000074e-03
1.068276000000000067e+03	1.068280078470700001e-03
1.069027000000000044e+03	1.061385031789500045e-03
1.069779999999999973e+03	1.100320601835800063e-03
1.070540999999999940e+03	1.100328052416400023e-03
1.071302000000000135e+03	1.089962781406899998e-03
1.072033000000000129e+03	1.035180990584099901e-03
1.072741999999999962e+03	1.064636162482200102e-03
1.073460000000000036e+03	1.085246680304400050e-03
1.074171000000000049e+03	1.098691485822199908e-03
1.074914999999999964e+03	1.071479404345099902e-03
1.075687000000000126e+03	1.097144442610399921e-03
1.076473999999999933e+03	1.079293899238100048e-03
1.077240999999999985e+03	1.047296798788000015e-03
1.078016000000000076e+03	1.028336468152699903e-03
1.078802000000000135e+03	1.067214179783999893e-03
1.079579999999999927e+03	1.091953250579499966e-03
1.080351000000000113e+03	1.084303599782200037e-03
1.081104000000000042e+03	1.019892864860499947e-03
1.081854000000000042e+03	1.050756778567999913e-03
1.082615000000000009e+03	1.095963758416399923e-03
1.083373000000000047e+03	1.085570664144999958e-03
1.084140000000000100e+03	1.075878157280300059e-03
1.084895999999999958e+03	9.758198866619999549e-04
1.085646999999999935e+03	1.071384525857800108e-03
1.086402000000000044e+03	1.068906858563399955e-03
1.087152000000000044e+03	1.055812230333600006e-03
1.087903999999999996e+03	1.102819922380099925e-03
1.088670000000000073e+03	1.074270345270600087e-03
1.089443999999999960e+03	1.089502591639699910e-03
1.090197000000000116e+03	1.042273244820500055e-03
1.090960000000000036e+03	1.049780286848499972e-03
1.091726000000000113e+03	1.073123421519899976e-03
1.092490999999999985e+03	1.072075800038799990e-03
1.093269000000000005e+03	1.089107943698700096e-03
1.094055000000000064e+03	1.053239917382600092e-03
1.094823000000000093e+03	9.570202673785000325e-04
1.095586999999999989e+03	9.955104906110999376e-04
1.096367999999999938e+03	1.028259983286199976e-03
1.097134999999999991e+03	1.075895619578599903e-03
1.097895999999999958e+03	1.096637453883800035e-03
1.098642000000000053e+03	1.094397273845899941e-03
1.099382000000000062e+03	1.078037545084899965e-03
1.100105000000000018e+03	1.010817242786200007e-03
1.100817999999999984e+03	1.055843313224600006e-03
1.101540999999999940e+03	1.090826699510200016e-03
1.102284000000000106e+03	1.093536731786999908e-03
1.103057999999999993e+03	1.087872078642200101e-03
1.103872000000000071e+03	1.075405045412399950e-03
1.104656999999999925e+03	1.079699606634599912e-03
1.105449000000000069e+03	1.023453543893900093e-03
1.106238000000000056e+03	1.044676871970300026e-03
1.107017000000000053e+03	1.090485951863200001e-03
1.107791999999999916e+03	1.047783414833199957e-03
1.108535000000000082e+03	1.068626414053100004e-03
1.109269000000000005e+03	1.029245671816099959e-03
1.109997000000000071e+03	1.041793148033300087e-03
1.110727000000000089e+03	1.084405696019499939e-03
1.111472999999999956e+03	1.075076288543599934e-03
1.112229000000000042e+03	1.087162643670999988e-03
1.112962999999999965e+03	1.050516031682400013e-03
1.113707000000000107e+03	1.054126420058300057e-03
1.114462999999999965e+03	1.095912884920799933e-03
1.115216000000000122e+03	1.088408287614500052e-03
1.115968000000000075e+03	1.094889594241899976e-03
1.116710000000000036e+03	1.008393708616499903e-03
1.117438000000000102e+03	1.017472357489099906e-03
1.118165999999999940e+03	1.065255026332999995e-03
1.118899000000000115e+03	1.077633351087499934e-03
1.119616999999999962e+03	1.062679570168199947e-03
1.120329999999999927e+03	1.005195546895200093e-03
1.121057999999999993e+03	1.028593047521999962e-03
1.121796000000000049e+03	1.061041140928800077e-03
1.122547000000000025e+03	1.071847043931400088e-03
1.123313000000000102e+03	1.056243199855000066e-03
1.124047000000000025e+03	1.013350323773899936e-03
1.124758000000000038e+03	1.018585520796399949e-03
1.125467000000000098e+03	1.037784037180200037e-03
1.126168000000000120e+03	1.076880726031900076e-03
1.126874000000000024e+03	1.086481963284300018e-03
1.127597999999999956e+03	1.054969965480199914e-03
1.128373000000000047e+03	1.072208280675099974e-03
1.129194999999999936e+03	1.073778490535899936e-03
1.130024000000000115e+03	1.094093895517200083e-03
1.130863000000000056e+03	1.084628747776099963e-03
1.131651000000000067e+03	9.478614665566999957e-04
1.132413000000000011e+03	9.738613152875999750e-04
1.133162000000000035e+03	1.069449004717100069e-03
1.133887999999999920e+03	1.072867773473199903e-03
1.134596999999999980e+03	1.068825484253399993e-03
1.135306000000000040e+03	1.034215209074299978e-03
1.136025000000000091e+03	9.946798672899001027e-04
1.136764000000000124e+03	1.064353738911400036e-03
1.137519999999999982e+03	1.082108821719800088e-03
1.138295000000000073e+03	9.973370470106001067e-04
1.139081000000000131e+03	1.061157789081299940e-03
