8.401359999999999673e+02	8.178587886503999515e-04
8.408899999999999864e+02	7.855671574361000001e-04
8.416580000000000155e+02	9.193980367854000116e-04
8.424329999999999927e+02	8.297460153697999632e-04
8.432019999999999982e+02	8.538740803487000416e-04
8.439149999999999636e+02	9.328493615611999513e-04
8.445940000000000509e+02	1.086245523765599907e-03
8.452670000000000528e+02	1.079115667380299961e-03
8.459389999999999645e+02	1.083797076716999999e-03
8.466259999999999764e+02	1.014599227346400095e-03
8.473190000000000737e+02	9.991549886763000446e-04
8.480360000000000582e+02	9.088770602828999748e-04
8.487710000000000719e+02	9.829987538977999918e-04
8.495140000000000100e+02	9.598461329005000516e-04
8.502659999999999627e+02	1.000378164462700087e-03
8.510270000000000437e+02	1.003494951873999935e-03
8.517590000000000146e+02	1.056836917996400050e-03
8.524619999999999891e+02	9.579961188137000021e-04
8.531539999999999964e+02	9.353522327728000301e-04
8.538319999999999936e+02	1.038791378959999945e-03
8.545159999999999627e+02	1.084267045371199939e-03
8.551979999999999791e+02	1.045282697305000008e-03
8.558870000000000573e+02	1.077863620594100066e-03
8.565860000000000127e+02	1.008383929729400087e-03
8.573110000000000355e+02	9.850343922153000347e-04
8.580779999999999745e+02	1.011932152323400096e-03
8.588550000000000182e+02	1.037779380567300071e-03
8.596430000000000291e+02	1.023747725412199909e-03
8.604230000000000018e+02	1.002633827738399911e-03
8.611610000000000582e+02	9.563976782374000512e-04
8.618750000000000000e+02	1.035293331369699973e-03
8.625860000000000127e+02	9.766148868948000029e-04
8.632950000000000728e+02	1.078679226338800055e-03
8.639990000000000236e+02	1.062254072166899949e-03
8.647169999999999845e+02	1.023274962790299975e-03
8.654360000000000355e+02	1.093558268621499944e-03
8.661560000000000628e+02	1.054069958627199899e-03
8.668700000000000045e+02	1.114432816393599911e-03
8.675729999999999791e+02	1.096889376640300092e-03
8.682820000000000391e+02	1.068899640813400064e-03
8.689869999999999663e+02	9.847955079749001056e-04
8.696990000000000691e+02	1.087218755856099971e-03
8.704130000000000109e+02	9.649613057263000358e-04
8.711320000000000618e+02	1.027993741445199991e-03
8.718490000000000464e+02	9.381109848617999979e-04
8.725660000000000309e+02	1.039661816321299937e-03
8.732799999999999727e+02	1.063948031514799991e-03
8.740090000000000146e+02	1.077613444067500054e-03
8.747280000000000655e+02	1.050179824233000037e-03
8.754590000000000600e+02	9.306362480856000081e-04
8.761879999999999882e+02	8.828202844597000248e-04
8.768960000000000719e+02	8.955450030043000205e-04
8.776119999999999663e+02	9.641043725422999847e-04
8.782839999999999918e+02	1.048011356033300015e-03
8.789610000000000127e+02	9.206290123983999719e-04
8.796069999999999709e+02	1.014633569866399973e-03
8.802269999999999754e+02	1.094631385058099978e-03
8.808519999999999754e+02	1.002900651655999923e-03
8.814769999999999754e+02	9.347199229522999610e-04
8.821159999999999854e+02	8.757025934754999845e-04
8.827780000000000200e+02	9.444170864297999702e-04
8.834919999999999618e+02	1.011995016597200085e-03
8.842200000000000273e+02	9.646985563448999979e-04
8.849640000000000555e+02	1.066033961251299997e-03
8.856940000000000737e+02	9.885550243779999552e-04
8.864120000000000346e+02	8.412302704527000515e-04
8.871169999999999618e+02	8.369400748051000413e-04
8.878029999999999973e+02	9.014263050630000199e-04
8.884540000000000646e+02	9.903518948703999951e-04
8.890930000000000746e+02	6.219239439814999845e-04
8.897010000000000218e+02	8.897758671082000052e-04
8.902960000000000491e+02	7.579048979095999710e-04
8.908849999999999909e+02	7.554838666691999919e-04
8.914769999999999754e+02	7.365896017290000193e-04
8.920729999999999791e+02	8.589453063904999497e-04
8.926760000000000446e+02	9.161637863143999886e-04
8.932849999999999682e+02	7.433664286509000102e-04
8.938909999999999627e+02	7.867180393077000513e-04
8.945109999999999673e+02	9.039217256940000307e-04
8.951449999999999818e+02	9.636980248615000400e-04
8.957849999999999682e+02	9.716536151245000041e-04
8.964210000000000491e+02	9.679379290900999794e-04
8.970550000000000637e+02	9.849951602517999054e-04
8.976720000000000255e+02	9.947867365552999323e-04
8.982839999999999918e+02	9.029474458657000191e-04
8.989039999999999964e+02	1.000550226308399978e-03
8.995260000000000673e+02	1.013383036479299911e-03
9.001700000000000728e+02	1.019595540128599926e-03
9.008400000000000318e+02	1.041123876348099908e-03
9.015430000000000064e+02	1.057728193700299907e-03
9.022740000000000009e+02	1.018124399706700055e-03
9.029859999999999900e+02	7.980090449563999539e-04
9.036810000000000400e+02	1.029949635267200011e-03
9.043759999999999764e+02	1.013819710351500066e-03
9.050320000000000391e+02	1.086111064068899989e-03
9.057250000000000227e+02	1.070279045961800056e-03
9.064410000000000309e+02	1.065748627297500011e-03
9.071770000000000209e+02	1.094158389605500012e-03
9.079250000000000682e+02	1.056954613886700077e-03
9.087029999999999745e+02	1.064693904481800023e-03
9.094690000000000509e+02	1.105485600419300017e-03
9.102269999999999754e+02	1.041688141413000049e-03
9.109540000000000646e+02	1.059987815096899997e-03
9.116510000000000673e+02	9.223749511874999689e-04
9.123609999999999900e+02	1.020236639305899988e-03
9.130710000000000264e+02	1.031358260661300067e-03
9.138020000000000209e+02	1.021051895804699983e-03
9.145480000000000018e+02	1.065403106622400068e-03
9.152710000000000719e+02	9.990130783989999499e-04
9.159819999999999709e+02	9.352636989205999774e-04
9.167029999999999745e+02	9.989934042095999223e-04
9.174130000000000109e+02	1.037499401718300004e-03
9.181230000000000473e+02	1.040879753418199986e-03
9.188310000000000173e+02	1.062776660546599925e-03
9.195330000000000155e+02	9.496296988799999986e-04
9.202240000000000464e+02	9.790566982701000114e-04
9.209239999999999782e+02	1.042791060171999922e-03
9.216460000000000719e+02	1.078088418580499955e-03
9.224120000000000346e+02	1.045524724759100106e-03
9.231970000000000027e+02	1.073298626579300037e-03
9.239700000000000273e+02	1.061491551809000096e-03
9.247340000000000373e+02	1.021132571622700028e-03
9.254909999999999854e+02	1.005831407382999946e-03
9.262540000000000191e+02	9.862177539615999203e-04
9.270040000000000191e+02	9.703698451630000292e-04
9.277200000000000273e+02	1.044450793415299976e-03
9.284360000000000355e+02	9.382951539008999595e-04
9.291660000000000537e+02	9.683204116299000321e-04
9.299200000000000728e+02	1.024707918986600061e-03
9.307180000000000746e+02	1.042807125486399896e-03
9.315470000000000255e+02	1.045531360432499970e-03
9.323300000000000409e+02	1.003992627374800106e-03
9.330990000000000464e+02	9.460225701332000128e-04
9.338540000000000418e+02	1.019512885250099983e-03
9.345960000000000036e+02	1.038092770613700030e-03
9.353150000000000546e+02	1.069957041181600083e-03
9.360420000000000300e+02	9.458255954085999923e-04
9.367760000000000673e+02	1.037645852193199922e-03
9.375439999999999827e+02	1.027960097417200029e-03
9.383460000000000036e+02	1.055993954651000041e-03
9.391259999999999764e+02	1.031163963489199970e-03
9.399149999999999636e+02	9.400895796715999638e-04
9.407010000000000218e+02	1.000852789729799993e-03
9.414909999999999854e+02	1.010092557407899980e-03
9.422740000000000009e+02	1.038423739373600012e-03
9.430470000000000255e+02	9.301135432905999981e-04
9.438050000000000637e+02	7.795542478561000212e-04
9.445280000000000200e+02	9.987573139368999871e-04
9.452509999999999764e+02	1.102582202292900051e-03
9.459710000000000036e+02	1.093439059331999903e-03
9.466929999999999836e+02	1.002372941002200061e-03
9.473870000000000573e+02	1.075598876923299909e-03
9.481069999999999709e+02	7.742375019005999590e-04
9.487839999999999918e+02	9.865456959232000566e-04
9.494830000000000609e+02	1.057875691912999990e-03
9.501470000000000482e+02	9.863368468358999983e-04
9.508300000000000409e+02	9.542813058942000186e-04
9.515080000000000382e+02	6.991885602474000143e-04
9.521789999999999736e+02	8.197471033781000361e-04
9.528500000000000227e+02	8.101289859041000243e-04
9.535140000000000100e+02	8.338142652064000227e-04
9.541620000000000346e+02	7.258850964716999929e-04
9.548110000000000355e+02	7.651557098142000406e-04
9.554420000000000073e+02	7.059097988530000332e-04
9.560660000000000309e+02	6.103836349211000031e-04
9.566940000000000737e+02	6.387652247211999959e-04
9.573279999999999745e+02	7.240282138809000113e-04
9.579840000000000373e+02	7.958692149259000408e-04
9.586730000000000018e+02	8.582635782658999592e-04
9.594120000000000346e+02	9.160737972706000124e-04
9.601520000000000437e+02	9.107367368415000223e-04
9.609020000000000437e+02	8.412024471908000024e-04
9.616430000000000291e+02	8.893638732843000194e-04
9.623650000000000091e+02	8.963186410255000484e-04
9.630529999999999973e+02	7.941041258162999904e-04
9.637300000000000182e+02	6.402802537194999611e-04
9.644070000000000391e+02	6.020248983986000281e-04
9.650910000000000082e+02	6.206434336489999965e-04
9.658200000000000500e+02	6.182041834108000216e-04
9.665529999999999973e+02	7.474540616385000119e-04
9.673179999999999836e+02	8.017242071218000409e-04
9.680960000000000036e+02	8.562704897485000138e-04
9.688580000000000609e+02	9.821986313908999486e-04
9.696209999999999809e+02	9.152898564933999778e-04
9.703730000000000473e+02	9.999996982513999558e-04
9.711180000000000518e+02	8.851807215251000348e-04
9.718460000000000036e+02	8.729479741305000082e-04
9.725900000000000318e+02	8.980964194050999796e-04
9.733350000000000364e+02	8.776450413279000091e-04
9.740819999999999936e+02	9.027771884575000461e-04
9.748379999999999654e+02	9.141187183557999800e-04
9.755679999999999836e+02	9.477747953495999512e-04
9.762810000000000628e+02	8.829400758258999478e-04
9.769970000000000709e+02	9.839247213675999387e-04
9.777090000000000600e+02	9.475693223066000226e-04
9.784470000000000027e+02	9.035557159222000001e-04
9.792029999999999745e+02	9.576130541971999586e-04
9.800009999999999764e+02	9.072785032912999894e-04
9.808100000000000591e+02	8.509395993314000390e-04
9.816240000000000236e+02	9.062443859875000517e-04
9.824400000000000546e+02	9.324328275397000343e-04
9.832350000000000136e+02	8.984761079773000017e-04
9.840020000000000664e+02	9.410396451129999802e-04
9.847129999999999654e+02	8.894949569365999528e-04
9.854310000000000400e+02	9.066201746463000430e-04
9.861370000000000573e+02	9.716349886729999967e-04
9.868329999999999700e+02	9.241405641659999936e-04
9.875410000000000537e+02	9.853463852777999063e-04
9.882690000000000055e+02	9.394652443006000454e-04
9.890080000000000382e+02	1.014283043332400106e-03
9.897470000000000709e+02	9.245614055544000261e-04
9.904850000000000136e+02	8.835018961689999808e-04
9.912110000000000127e+02	9.120453032663999480e-04
9.919360000000000355e+02	9.508360526523999519e-04
9.926670000000000300e+02	9.240471990778999960e-04
9.933799999999999955e+02	9.795732330529999341e-04
9.940560000000000400e+02	8.755500311962999965e-04
9.947160000000000082e+02	5.280979676171999567e-04
9.953580000000000609e+02	8.027090807445000364e-04
9.960040000000000191e+02	7.937952759674999628e-04
9.966570000000000391e+02	7.675577071494999641e-04
9.973250000000000455e+02	8.273220155387999743e-04
9.979719999999999800e+02	8.431603200733000288e-04
9.986130000000000564e+02	1.084349351003699924e-03
9.992720000000000482e+02	1.073119579814300071e-03
9.999550000000000409e+02	9.957888396456000650e-04
1.000659999999999968e+03	9.262785897589999881e-04
1.001349000000000046e+03	8.473685593344000132e-04
1.002043000000000006e+03	8.111080969682999808e-04
1.002760999999999967e+03	8.710677502676000003e-04
1.003485999999999990e+03	8.365364046766999477e-04
1.004187999999999988e+03	9.352071792817999831e-04
1.004892000000000053e+03	1.099153421819200078e-03
1.005584000000000060e+03	9.477896383031999975e-04
1.006239000000000033e+03	1.001036609523000068e-03
1.006913999999999987e+03	1.088830176740799996e-03
1.007591999999999985e+03	1.058427733369100062e-03
1.008278999999999996e+03	1.031376887112799966e-03
1.008995000000000005e+03	1.011063461191899970e-03
1.009738000000000056e+03	1.051352708600399900e-03
1.010466999999999985e+03	9.187065297736999887e-04
1.011197999999999979e+03	8.557320106774000436e-04
1.011951000000000022e+03	8.628158830106000352e-04
1.012711000000000013e+03	8.704570354893000203e-04
1.013474000000000046e+03	9.606152307242000034e-04
1.014214000000000055e+03	1.018455834127899922e-03
1.014920000000000073e+03	8.724585059097999477e-04
1.015635999999999967e+03	1.011556480079799959e-03
1.016324000000000069e+03	1.005533151328499939e-03
1.016969000000000051e+03	9.195762686431000268e-04
1.017630999999999972e+03	8.795926114544000288e-04
1.018283000000000015e+03	9.260895894839999733e-04
1.018951999999999998e+03	1.030575833283299938e-03
1.019644000000000005e+03	1.051533152349199991e-03
1.020374000000000024e+03	9.484994225202999975e-04
1.021134999999999991e+03	1.010156702250199949e-03
1.021893000000000029e+03	9.252821910194999498e-04
1.022657000000000039e+03	1.004329416900799892e-03
1.023399000000000001e+03	1.068230019882300107e-03
1.024133000000000038e+03	1.061771530657999946e-03
1.024856999999999971e+03	1.069682533852700079e-03
1.025558999999999969e+03	1.074722153134600013e-03
1.026249000000000024e+03	1.012134365737400038e-03
1.026941000000000031e+03	1.052518840879199937e-03
1.027640000000000100e+03	1.048158854246100061e-03
1.028373000000000047e+03	1.056311069987699979e-03
1.029142000000000053e+03	1.050779712386400036e-03
1.029909000000000106e+03	1.068072509951799960e-03
1.030650000000000091e+03	9.848083136602999842e-04
1.031400000000000091e+03	9.743370465001999908e-04
1.032143000000000029e+03	1.060587819665599922e-03
1.032867999999999938e+03	1.053584157489200054e-03
1.033566000000000031e+03	1.030087005347000029e-03
1.034257000000000062e+03	8.425023988819999856e-04
1.034952999999999975e+03	9.764105197972999675e-04
1.035668000000000120e+03	9.480720036663000099e-04
1.036389000000000124e+03	9.936136193573000003e-04
1.037097999999999956e+03	8.994325180537999761e-04
1.037817000000000007e+03	8.696899749338000193e-04
1.038543000000000120e+03	9.396987152285000023e-04
1.039252999999999929e+03	9.397340472786999558e-04
1.039940000000000055e+03	6.723827100358000268e-04
1.040605000000000018e+03	8.241805480793000299e-04
1.041255000000000109e+03	7.396714063360999803e-04
1.041890000000000100e+03	6.228902493602999539e-04
1.042534000000000106e+03	7.361200987360999636e-04
1.043184999999999945e+03	6.891265511511999575e-04
1.043849999999999909e+03	7.049676496534999694e-04
1.044540999999999940e+03	6.716384668834000059e-04
1.045243999999999915e+03	6.666700937785000058e-04
1.045983999999999924e+03	6.577430758625000054e-04
1.046748000000000047e+03	5.022971890865999666e-04
1.047534000000000106e+03	7.954371394589000157e-04
1.048255000000000109e+03	9.509156225248999953e-04
1.048956000000000131e+03	9.226972470058999922e-04
1.049621000000000095e+03	8.935101795941000373e-04
1.050278999999999996e+03	9.787484304978999027e-04
1.050949000000000069e+03	8.317868923767999991e-04
1.051672000000000025e+03	9.398531401528999619e-04
1.052464999999999918e+03	5.934095825067999940e-04
1.053264000000000124e+03	7.542185485363000087e-04
1.054040999999999940e+03	9.319607052020000004e-04
1.054836999999999989e+03	8.699485333635999761e-04
1.055584000000000060e+03	1.004679827019500050e-03
1.056326999999999998e+03	9.271483286282999545e-04
1.057058999999999969e+03	9.149070247075999666e-04
1.057809999999999945e+03	9.428485063834999473e-04
1.058557999999999993e+03	9.407547186128000427e-04
1.059332000000000107e+03	1.015452435240100058e-03
1.060126999999999953e+03	1.017562346532900099e-03
1.060949000000000069e+03	1.098774373531299919e-03
1.061771999999999935e+03	1.066435826942299919e-03
1.062574000000000069e+03	1.006433274596900060e-03
1.063339999999999918e+03	9.119811002164999970e-04
1.064073000000000093e+03	9.696624474599000116e-04
1.064809999999999945e+03	1.027294667437599974e-03
1.065548999999999978e+03	1.016544643789500093e-03
1.066288999999999987e+03	1.026708981953499940e-03
1.067020999999999958e+03	9.858707198872999639e-04
1.067733999999999924e+03	8.825435652397000535e-04
1.068467000000000098e+03	9.819958359002999796e-04
1.069203999999999951e+03	1.039837021380600034e-03
1.069958000000000084e+03	9.901056764647000324e-04
1.070673999999999978e+03	8.466238505206999995e-04
1.071383000000000038e+03	8.689679671077999877e-04
1.072122000000000071e+03	1.039023511111700085e-03
1.072873000000000047e+03	1.000097603537099993e-03
1.073635999999999967e+03	1.011963817290899943e-03
1.074411000000000058e+03	9.899537544697000532e-04
1.075149000000000115e+03	8.365743560716000244e-04
1.075886999999999944e+03	9.380401461384999667e-04
1.076622000000000071e+03	1.028704456985000048e-03
1.077362000000000080e+03	1.041410723701099907e-03
1.078101000000000113e+03	1.006267266348000004e-03
1.078826999999999998e+03	8.985992171801000013e-04
1.079570999999999913e+03	9.467475465498000542e-04
1.080331000000000131e+03	9.036046685650000370e-04
1.081105999999999995e+03	9.968162048607999599e-04
1.081894999999999982e+03	9.710242156869999634e-04
1.082692999999999984e+03	8.892556070349999942e-04
1.083461000000000013e+03	8.794351015238999897e-04
1.084206000000000131e+03	9.537102887405999804e-04
1.084951999999999998e+03	9.886532789095999873e-04
1.085692999999999984e+03	1.044743927195599916e-03
1.086449000000000069e+03	1.022815704345700089e-03
1.087211000000000013e+03	1.042941701598399957e-03
1.087987000000000080e+03	9.961463510989999708e-04
1.088751999999999953e+03	9.611772256903000156e-04
1.089511999999999944e+03	8.940070401877000042e-04
1.090283000000000129e+03	9.470867807975999475e-04
1.091063000000000102e+03	9.469079668633000133e-04
1.091862000000000080e+03	1.005408703349499906e-03
1.092660000000000082e+03	1.015390618704199981e-03
1.093430000000000064e+03	8.916743681765999536e-04
1.094190000000000055e+03	8.716777083462999738e-04
1.094927000000000135e+03	9.731256868689999685e-04
1.095645999999999958e+03	9.535573190078000527e-04
1.096365000000000009e+03	9.365125442855000469e-04
1.097115999999999985e+03	9.307416039519000048e-04
1.097922000000000025e+03	9.442322188987999467e-04
1.098761999999999944e+03	9.725626441650000445e-04
1.099612000000000080e+03	9.843151783570001055e-04
1.100440000000000055e+03	9.049745858646000103e-04
1.101230999999999995e+03	9.652355802245000081e-04
1.102016000000000076e+03	9.061229065991000279e-04
1.102779999999999973e+03	9.555220603942000479e-04
1.103543000000000120e+03	1.010806416161300026e-03
1.104296000000000049e+03	9.954003617167000127e-04
1.105031999999999925e+03	9.775593644007999228e-04
1.105772999999999911e+03	9.897545678540999210e-04
1.106526000000000067e+03	1.010175445116999991e-03
1.107294000000000096e+03	1.011451124213599926e-03
1.108113000000000056e+03	1.000547781586599979e-03
1.108942999999999984e+03	9.949959348886999125e-04
1.109759999999999991e+03	8.683216292411000039e-04
1.110509999999999991e+03	7.094764732754999621e-04
1.111228000000000065e+03	9.955347049981000049e-04
1.111913999999999987e+03	1.081794500350900107e-03
1.112575000000000045e+03	1.076941611245199951e-03
1.113214999999999918e+03	1.098449691198700095e-03
1.113833000000000084e+03	1.075505395419899986e-03
1.114445999999999913e+03	1.033672131598000095e-03
1.115082000000000107e+03	1.073670689947899904e-03
1.115735000000000127e+03	1.080001238733499904e-03
1.116443999999999960e+03	1.033086329698499955e-03
1.117177000000000135e+03	8.705835789441999494e-04
1.117886999999999944e+03	8.725895313545999716e-04
1.118598999999999933e+03	8.707011002114999976e-04
1.119280999999999949e+03	4.277533153072000092e-04
1.119969000000000051e+03	8.569811470806000184e-04
1.120632000000000062e+03	7.953085587358999908e-04
1.121274000000000115e+03	5.937272217124000152e-04
1.121912000000000035e+03	6.480202428064999690e-04
1.122569999999999936e+03	6.447832565754000418e-04
1.123226000000000113e+03	6.879149586893000112e-04
1.123892000000000053e+03	8.299236069432999697e-04
1.124577999999999975e+03	8.886726573109000101e-04
1.125260999999999967e+03	9.436311083844999481e-04
1.125929000000000087e+03	8.312772260978000451e-04
1.126574000000000069e+03	6.804310833102999610e-04
1.127213999999999942e+03	7.753989775665000306e-04
1.127837999999999965e+03	8.056220249272000398e-04
1.128451000000000022e+03	8.287407108582000052e-04
1.129052000000000135e+03	8.995249518192999878e-04
1.129653000000000020e+03	8.021562243811000128e-04
1.130288999999999987e+03	8.524453151038999645e-04
1.131048999999999978e+03	9.045834303832999985e-04
1.131927000000000135e+03	9.045515325851000111e-04
1.132784000000000106e+03	8.923854911698999876e-04
1.133673000000000002e+03	9.211230790241999814e-04
1.134527000000000044e+03	9.357317467219999647e-04
1.135333000000000084e+03	9.502425673417000005e-04
1.136111000000000104e+03	9.153008577413000463e-04
1.136856999999999971e+03	9.471519151701999562e-04
1.137577999999999975e+03	1.019422663375699938e-03
1.138277000000000044e+03	9.846682660280998978e-04
1.138979000000000042e+03	1.019779127091099968e-03
